3.991927e+002,0.000000e+000
4.011211e+002,0.000000e+000
4.030496e+002,0.000000e+000
4.049781e+002,0.000000e+000
4.069065e+002,0.000000e+000
4.088350e+002,0.000000e+000
4.107635e+002,0.000000e+000
4.126919e+002,0.000000e+000
4.146204e+002,0.000000e+000
4.165489e+002,0.000000e+000
4.184773e+002,0.000000e+000
4.204058e+002,0.000000e+000
4.223343e+002,0.000000e+000
4.242627e+002,0.000000e+000
4.261912e+002,0.000000e+000
4.281197e+002,0.000000e+000
4.300481e+002,0.000000e+000
4.319766e+002,0.000000e+000
4.339051e+002,0.000000e+000
4.358335e+002,0.000000e+000
4.377620e+002,0.000000e+000
4.396905e+002,0.000000e+000
4.416189e+002,0.000000e+000
4.435474e+002,0.000000e+000
4.454759e+002,0.000000e+000
4.474043e+002,0.000000e+000
4.493328e+002,0.000000e+000
4.512613e+002,0.000000e+000
4.531897e+002,0.000000e+000
4.551182e+002,0.000000e+000
4.570467e+002,0.000000e+000
4.589751e+002,0.000000e+000
4.609036e+002,0.000000e+000
4.628321e+002,0.000000e+000
4.647605e+002,0.000000e+000
4.666890e+002,0.000000e+000
4.686175e+002,0.000000e+000
4.705459e+002,0.000000e+000
4.724744e+002,0.000000e+000
4.744029e+002,0.000000e+000
4.763313e+002,0.000000e+000
4.782598e+002,0.000000e+000
4.801883e+002,0.000000e+000
4.821167e+002,0.000000e+000
4.840452e+002,0.000000e+000
4.859737e+002,0.000000e+000
4.879021e+002,0.000000e+000
4.898306e+002,0.000000e+000
4.917591e+002,0.000000e+000
4.936875e+002,0.000000e+000
4.956160e+002,0.000000e+000
4.975445e+002,0.000000e+000
4.994729e+002,0.000000e+000
5.014014e+002,0.000000e+000
5.033299e+002,0.000000e+000
5.052583e+002,0.000000e+000
5.071868e+002,0.000000e+000
5.091153e+002,0.000000e+000
5.110437e+002,0.000000e+000
5.129722e+002,0.000000e+000
5.149006e+002,0.000000e+000
5.168291e+002,0.000000e+000
5.187576e+002,0.000000e+000
5.206860e+002,0.000000e+000
5.226145e+002,0.000000e+000
5.245430e+002,0.000000e+000
5.264714e+002,0.000000e+000
5.283999e+002,0.000000e+000
5.303284e+002,0.000000e+000
5.322568e+002,0.000000e+000
5.341853e+002,0.000000e+000
5.361138e+002,0.000000e+000
5.380422e+002,0.000000e+000
5.399707e+002,0.000000e+000
5.418992e+002,0.000000e+000
5.438276e+002,0.000000e+000
5.457561e+002,0.000000e+000
5.476846e+002,0.000000e+000
5.496130e+002,0.000000e+000
5.515415e+002,0.000000e+000
5.534700e+002,0.000000e+000
5.553984e+002,0.000000e+000
5.573269e+002,0.000000e+000
5.592554e+002,0.000000e+000
5.611838e+002,0.000000e+000
5.631123e+002,0.000000e+000
5.650408e+002,0.000000e+000
5.669692e+002,0.000000e+000
5.688977e+002,0.000000e+000
5.708262e+002,0.000000e+000
5.727546e+002,0.000000e+000
5.746831e+002,0.000000e+000
5.766116e+002,0.000000e+000
5.785400e+002,0.000000e+000
5.804685e+002,0.000000e+000
5.823970e+002,0.000000e+000
5.843254e+002,0.000000e+000
5.862539e+002,0.000000e+000
5.881824e+002,0.000000e+000
5.901108e+002,0.000000e+000
5.920393e+002,0.000000e+000
5.939678e+002,0.000000e+000
5.958962e+002,0.000000e+000
5.978247e+002,0.000000e+000
5.997532e+002,0.000000e+000
6.016816e+002,0.000000e+000
6.036101e+002,0.000000e+000
6.055386e+002,0.000000e+000
6.074670e+002,0.000000e+000
6.093955e+002,0.000000e+000
6.113240e+002,0.000000e+000
6.132524e+002,0.000000e+000
6.151809e+002,0.000000e+000
6.171094e+002,0.000000e+000
6.190378e+002,0.000000e+000
6.209663e+002,0.000000e+000
6.228948e+002,0.000000e+000
6.248232e+002,0.000000e+000
6.267517e+002,0.000000e+000
6.286802e+002,0.000000e+000
6.306086e+002,0.000000e+000
6.325371e+002,0.000000e+000
6.344656e+002,0.000000e+000
6.363940e+002,0.000000e+000
6.383225e+002,0.000000e+000
6.402510e+002,0.000000e+000
6.421794e+002,0.000000e+000
6.441079e+002,0.000000e+000
6.460364e+002,0.000000e+000
6.479648e+002,0.000000e+000
6.498933e+002,1.397951e-001
6.518218e+002,1.399960e-001
6.537502e+002,1.379190e-001
6.556787e+002,1.366924e-001
6.576072e+002,1.356027e-001
6.595356e+002,1.341285e-001
6.614641e+002,1.330610e-001
6.633926e+002,1.345016e-001
6.653210e+002,1.330889e-001
6.672495e+002,1.315635e-001
6.691780e+002,1.301298e-001
6.711064e+002,1.286413e-001
6.730349e+002,1.272821e-001
6.749634e+002,1.251799e-001
6.768918e+002,1.250082e-001
6.788203e+002,1.242110e-001
6.807488e+002,1.227921e-001
6.826772e+002,1.209152e-001
6.846057e+002,1.192055e-001
6.865342e+002,1.187870e-001
6.884626e+002,1.187705e-001
6.903911e+002,1.171670e-001
6.923196e+002,1.157335e-001
6.942480e+002,1.147702e-001
6.961765e+002,1.136712e-001
6.981050e+002,1.121625e-001
7.000334e+002,1.111342e-001
7.019619e+002,1.103781e-001
7.038904e+002,1.092419e-001
7.058188e+002,1.072856e-001
7.077473e+002,1.063657e-001
7.096758e+002,1.060991e-001
7.116042e+002,1.047905e-001
7.135327e+002,1.026927e-001
7.154612e+002,1.013402e-001
7.173896e+002,9.992322e-002
7.193181e+002,9.722962e-002
7.212466e+002,9.599739e-002
7.231750e+002,9.569036e-002
7.251035e+002,9.504064e-002
7.270320e+002,9.420692e-002
7.289604e+002,9.280918e-002
7.308889e+002,9.147175e-002
7.328174e+002,8.979721e-002
7.347458e+002,8.742231e-002
7.366743e+002,8.560903e-002
7.386028e+002,8.426213e-002
7.405313e+002,8.286940e-002
7.424597e+002,8.156602e-002
7.443882e+002,7.976798e-002
7.463167e+002,7.891107e-002
7.482451e+002,7.837337e-002
7.501736e+002,7.706013e-002
7.521021e+002,7.551979e-002
7.540305e+002,7.419427e-002
7.559590e+002,7.290428e-002
7.578875e+002,7.168416e-002
7.598159e+002,7.018357e-002
7.617444e+002,6.930662e-002
7.636729e+002,6.876892e-002
7.656013e+002,6.809764e-002
7.675298e+002,6.699588e-002
7.694583e+002,6.499708e-002
7.713867e+002,6.414752e-002
7.733152e+002,6.356702e-002
7.752437e+002,6.183098e-002
7.771721e+002,6.123637e-002
7.791006e+002,6.007392e-002
7.810291e+002,5.769191e-002
7.829575e+002,5.636190e-002
7.848860e+002,5.600460e-002
7.868145e+002,5.400229e-002
7.887429e+002,5.282560e-002
7.906714e+002,5.179352e-002
7.925999e+002,4.966863e-002
7.945283e+002,4.845638e-002
7.964568e+002,4.814853e-002
7.983853e+002,4.728644e-002
8.003137e+002,4.616895e-002
8.022422e+002,4.570419e-002
8.041707e+002,4.529831e-002
8.060991e+002,4.392878e-002
8.080276e+002,4.257082e-002
8.099561e+002,4.246565e-002
8.118845e+002,4.265536e-002
8.138130e+002,4.196982e-002
8.157415e+002,4.041435e-002
8.176699e+002,3.931162e-002
8.195984e+002,3.936310e-002
8.215269e+002,3.861976e-002
8.234553e+002,3.740978e-002
8.253838e+002,3.664457e-002
8.273123e+002,3.633713e-002
8.292407e+002,3.564196e-002
8.311692e+002,3.498287e-002
8.330977e+002,3.374065e-002
8.350261e+002,3.320110e-002
8.369546e+002,3.312546e-002
8.388831e+002,3.126904e-002
8.408115e+002,3.034636e-002
8.427400e+002,2.989655e-002
8.446685e+002,2.947092e-002
8.465969e+002,2.897302e-002
8.485254e+002,2.810023e-002
8.504539e+002,2.735691e-002
8.523823e+002,2.740385e-002
8.543108e+002,2.676877e-002
8.562393e+002,2.570778e-002
8.581677e+002,2.504980e-002
8.600962e+002,2.505629e-002
8.620247e+002,2.465940e-002
8.639531e+002,2.400997e-002
8.658816e+002,2.333924e-002
8.678101e+002,2.273238e-002
8.697385e+002,2.249000e-002
8.716670e+002,2.222056e-002
8.735955e+002,2.171477e-002
8.755239e+002,2.148448e-002
8.774524e+002,2.133442e-002
8.793809e+002,2.109946e-002
8.813093e+002,2.113849e-002
8.832378e+002,2.101408e-002
8.851663e+002,2.078910e-002
8.870947e+002,1.991462e-002
8.890232e+002,1.911820e-002
8.909517e+002,1.908749e-002
8.928801e+002,1.947415e-002
8.948086e+002,1.941400e-002
8.967371e+002,1.912409e-002
8.986655e+002,1.906273e-002
9.005940e+002,1.945374e-002
9.025225e+002,1.911941e-002
9.044509e+002,1.876863e-002
9.063794e+002,1.945960e-002
9.083079e+002,1.925748e-002
9.102363e+002,1.891088e-002
9.121648e+002,1.925911e-002
9.140933e+002,1.941272e-002
9.160217e+002,1.907578e-002
9.179502e+002,1.855518e-002
9.198787e+002,1.922735e-002
9.218071e+002,2.011201e-002
9.237356e+002,1.987129e-002
9.256641e+002,1.958385e-002
9.275925e+002,1.989453e-002
9.295210e+002,2.031622e-002
9.314495e+002,2.057622e-002
9.333779e+002,2.085445e-002
9.353064e+002,2.116246e-002
9.372349e+002,2.113891e-002
9.391633e+002,2.131716e-002
9.410918e+002,2.166493e-002
9.430203e+002,2.201890e-002
9.449487e+002,2.285481e-002
9.468772e+002,2.347383e-002
9.488057e+002,2.367285e-002
9.507341e+002,2.412239e-002
9.526626e+002,2.483724e-002
9.545911e+002,2.589087e-002
9.565195e+002,2.678185e-002
9.584480e+002,2.767085e-002
9.603765e+002,2.873885e-002
9.623049e+002,2.961278e-002
9.642334e+002,3.089874e-002
9.661619e+002,3.208551e-002
9.680903e+002,3.342022e-002
9.700188e+002,3.539407e-002
9.719473e+002,3.685227e-002
9.738757e+002,3.892643e-002
9.758042e+002,4.141304e-002
9.777327e+002,4.376167e-002
9.796611e+002,4.689640e-002
9.815896e+002,5.053688e-002
9.835181e+002,5.408326e-002
9.854465e+002,5.829984e-002
9.873750e+002,6.373260e-002
9.893035e+002,7.037745e-002
9.912319e+002,7.826436e-002
9.931604e+002,8.805667e-002
9.950889e+002,9.985774e-002
9.970173e+002,1.143981e-001
9.989458e+002,1.329887e-001
1.000874e+003,1.557851e-001
1.002803e+003,1.839388e-001
1.004731e+003,2.184495e-001
1.006660e+003,2.592973e-001
1.008588e+003,3.047965e-001
1.010517e+003,3.530183e-001
1.012445e+003,4.014326e-001
1.014374e+003,4.513595e-001
1.016302e+003,5.036588e-001
1.018230e+003,5.575980e-001
1.020159e+003,6.063924e-001
1.022087e+003,6.313062e-001
1.024016e+003,6.207791e-001
1.025944e+003,5.796921e-001
1.027873e+003,5.222586e-001
1.029801e+003,4.628498e-001
1.031730e+003,4.058799e-001
1.033658e+003,3.538997e-001
1.035587e+003,3.078024e-001
1.037515e+003,2.655056e-001
1.039444e+003,2.253633e-001
1.041372e+003,1.883207e-001
1.043301e+003,1.546087e-001
1.045229e+003,1.251800e-001
1.047157e+003,1.021810e-001
1.049086e+003,8.569487e-002
1.051014e+003,7.283281e-002
1.052943e+003,6.340607e-002
1.054871e+003,5.701100e-002
1.056800e+003,5.125450e-002
1.058728e+003,4.579689e-002
1.060657e+003,4.220335e-002
1.062585e+003,3.978521e-002
1.064514e+003,3.723426e-002
1.066442e+003,3.455737e-002
1.068371e+003,3.270902e-002
1.070299e+003,3.199819e-002
1.072228e+003,3.148289e-002
1.074156e+003,3.071563e-002
1.076084e+003,3.046754e-002
1.078013e+003,3.020870e-002
1.079941e+003,2.967348e-002
1.081870e+003,2.891479e-002
1.083798e+003,2.896434e-002
1.085727e+003,2.931446e-002
1.087655e+003,2.916241e-002
1.089584e+003,2.973862e-002
1.091512e+003,3.058563e-002
1.093441e+003,3.125455e-002
1.095369e+003,3.267083e-002
1.097298e+003,3.366134e-002
1.099226e+003,3.412754e-002
1.101155e+003,3.542688e-002
1.103083e+003,3.689736e-002
1.105011e+003,3.816998e-002
1.106940e+003,3.998803e-002
1.108868e+003,4.098668e-002
1.110797e+003,4.226675e-002
1.112725e+003,4.233830e-002
1.114654e+003,4.188991e-002
1.116582e+003,4.190563e-002
1.118511e+003,4.168040e-002
1.120439e+003,4.058236e-002
1.122368e+003,3.917431e-002
1.124296e+003,3.785263e-002
1.126225e+003,3.592368e-002
1.128153e+003,3.393296e-002
1.130082e+003,3.200047e-002
1.132010e+003,3.017730e-002
1.133938e+003,2.787674e-002
1.135867e+003,2.539537e-002
1.137795e+003,2.353214e-002
1.139724e+003,2.217188e-002
1.141652e+003,2.085442e-002
1.143581e+003,1.924921e-002
1.145509e+003,1.818470e-002
1.147438e+003,1.788594e-002
1.149366e+003,1.701669e-002
1.151295e+003,1.600116e-002
1.153223e+003,1.564653e-002
1.155152e+003,1.521470e-002
1.157080e+003,1.478943e-002
1.159009e+003,1.473664e-002
1.160937e+003,1.452293e-002
1.162865e+003,1.408612e-002
1.164794e+003,1.392488e-002
1.166722e+003,1.347025e-002
1.168651e+003,1.317027e-002
1.170579e+003,1.313591e-002
1.172508e+003,1.310914e-002
1.174436e+003,1.293422e-002
1.176365e+003,1.322003e-002
1.178293e+003,1.344348e-002
1.180222e+003,1.301677e-002
1.182150e+003,1.281060e-002
1.184079e+003,1.327684e-002
1.186007e+003,1.348918e-002
1.187936e+003,1.298605e-002
1.189864e+003,1.265976e-002
1.191792e+003,1.237633e-002
1.193721e+003,1.247139e-002
1.195649e+003,1.283050e-002
1.197578e+003,1.297454e-002
1.199506e+003,1.297078e-002
1.201435e+003,1.270377e-002
1.203363e+003,1.262721e-002
1.205292e+003,1.259058e-002
1.207220e+003,1.240933e-002
1.209149e+003,1.270308e-002
1.211077e+003,1.299984e-002
1.213006e+003,1.278272e-002
1.214934e+003,1.247081e-002
1.216863e+003,1.244186e-002
1.218791e+003,1.257707e-002
1.220719e+003,1.262820e-002
1.222648e+003,1.262558e-002
1.224576e+003,1.256848e-002
1.226505e+003,1.251381e-002
1.228433e+003,1.261606e-002
1.230362e+003,1.278876e-002
1.232290e+003,1.259713e-002
1.234219e+003,1.242389e-002
1.236147e+003,1.241693e-002
1.238076e+003,1.233262e-002
1.240004e+003,1.235979e-002
1.241933e+003,1.257888e-002
1.243861e+003,1.268074e-002
1.245790e+003,1.263056e-002
1.247718e+003,1.284214e-002
1.249646e+003,1.283579e-002
1.251575e+003,1.278832e-002
1.253503e+003,1.262094e-002
1.255432e+003,1.214995e-002
1.257360e+003,1.206729e-002
1.259289e+003,1.233791e-002
1.261217e+003,1.227873e-002
1.263146e+003,1.214787e-002
1.265074e+003,1.211819e-002
1.267003e+003,1.229976e-002
1.268931e+003,1.271622e-002
1.270860e+003,1.300731e-002
1.272788e+003,1.308086e-002
1.274717e+003,1.348385e-002
1.276645e+003,1.367269e-002
1.278573e+003,1.366291e-002
1.280502e+003,1.377430e-002
1.282430e+003,1.393726e-002
1.284359e+003,1.397518e-002
1.286287e+003,1.399249e-002
1.288216e+003,1.419039e-002
1.290144e+003,1.447477e-002
1.292073e+003,1.470003e-002
1.294001e+003,1.474380e-002
1.295930e+003,1.487572e-002
1.297858e+003,1.530640e-002
1.299787e+003,1.576423e-002
1.301715e+003,1.591261e-002
1.303644e+003,1.587546e-002
1.305572e+003,1.597249e-002
1.307500e+003,1.604458e-002
1.309429e+003,1.608722e-002
1.311357e+003,1.640064e-002
1.313286e+003,1.659434e-002
1.315214e+003,1.662267e-002
1.317143e+003,1.671536e-002
1.319071e+003,1.695026e-002
1.321000e+003,1.716434e-002
1.322928e+003,1.736083e-002
1.324857e+003,1.746384e-002
1.326785e+003,1.777150e-002
1.328714e+003,1.809146e-002
1.330642e+003,1.812977e-002
1.332571e+003,1.813219e-002
1.334499e+003,1.879478e-002
1.336427e+003,1.951979e-002
1.338356e+003,1.989797e-002
1.340284e+003,2.022752e-002
1.342213e+003,2.055426e-002
1.344141e+003,2.090580e-002
1.346070e+003,2.125856e-002
1.347998e+003,2.163814e-002
1.349927e+003,2.224274e-002
1.351855e+003,2.275438e-002
1.353784e+003,2.322360e-002
1.355712e+003,2.394554e-002
1.357641e+003,2.469619e-002
1.359569e+003,2.542502e-002
1.361498e+003,2.603016e-002
1.363426e+003,2.663918e-002
1.365354e+003,2.741394e-002
1.367283e+003,2.847006e-002
1.369211e+003,2.955848e-002
1.371140e+003,3.054354e-002
1.373068e+003,3.165973e-002
1.374997e+003,3.271695e-002
1.376925e+003,3.389097e-002
1.378854e+003,3.515465e-002
1.380782e+003,3.645718e-002
1.382711e+003,3.760633e-002
1.384639e+003,3.885058e-002
1.386568e+003,4.019436e-002
1.388496e+003,4.177783e-002
1.390425e+003,4.329694e-002
1.392353e+003,4.462956e-002
1.394281e+003,4.584239e-002
1.396210e+003,4.702665e-002
1.398138e+003,4.808720e-002
1.400067e+003,4.919543e-002
1.401995e+003,5.026174e-002
1.403924e+003,5.125163e-002
1.405852e+003,5.223406e-002
1.407781e+003,5.297897e-002
1.409709e+003,5.352700e-002
1.411638e+003,5.397193e-002
1.413566e+003,5.436312e-002
1.415495e+003,5.462690e-002
1.417423e+003,5.456028e-002
1.419352e+003,5.472701e-002
1.421280e+003,5.472359e-002
1.423208e+003,5.423671e-002
1.425137e+003,5.411404e-002
1.427065e+003,5.356501e-002
1.428994e+003,5.260896e-002
1.430922e+003,5.209156e-002
1.432851e+003,5.184758e-002
1.434779e+003,5.170562e-002
1.436708e+003,5.167665e-002
1.438636e+003,5.213378e-002
1.440565e+003,5.355811e-002
1.442493e+003,5.599057e-002
1.444422e+003,5.870444e-002
1.446350e+003,6.109633e-002
1.448279e+003,6.227246e-002
1.450207e+003,6.168251e-002
1.452135e+003,6.008739e-002
1.454064e+003,5.781389e-002
1.455992e+003,5.565711e-002
1.457921e+003,5.392230e-002
1.459849e+003,5.233422e-002
1.461778e+003,5.088636e-002
1.463706e+003,4.944661e-002
1.465635e+003,4.796093e-002
1.467563e+003,4.642116e-002
1.469492e+003,4.544644e-002
1.471420e+003,4.452599e-002
1.473349e+003,4.327143e-002
1.475277e+003,4.171830e-002
1.477206e+003,4.027473e-002
1.479134e+003,3.893121e-002
1.481063e+003,3.730459e-002
1.482991e+003,3.552004e-002
1.484919e+003,3.375683e-002
1.486848e+003,3.202569e-002
1.488776e+003,3.032256e-002
1.490705e+003,2.849773e-002
1.492633e+003,2.697988e-002
1.494562e+003,2.581508e-002
1.496490e+003,2.452044e-002
1.498419e+003,2.353851e-002
1.500347e+003,2.258835e-002
1.502276e+003,2.151836e-002
1.504204e+003,2.056965e-002
1.506133e+003,1.984424e-002
1.508061e+003,1.910217e-002
1.509990e+003,1.811087e-002
1.511918e+003,1.730089e-002
1.513846e+003,1.632316e-002
1.515775e+003,1.541123e-002
1.517703e+003,1.490309e-002
1.519632e+003,1.416074e-002
1.521560e+003,1.346050e-002
1.523489e+003,1.302432e-002
1.525417e+003,1.268879e-002
1.527346e+003,1.182994e-002
1.529274e+003,1.135124e-002
1.531203e+003,1.086338e-002
1.533131e+003,1.050643e-002
1.535060e+003,1.027326e-002
1.536988e+003,9.918929e-003
1.538917e+003,9.660962e-003
1.540845e+003,9.547345e-003
1.542773e+003,9.142308e-003
1.544702e+003,8.648811e-003
1.546630e+003,8.363864e-003
1.548559e+003,8.075899e-003
1.550487e+003,7.565774e-003
1.552416e+003,7.266275e-003
1.554344e+003,7.268296e-003
1.556273e+003,7.267487e-003
1.558201e+003,7.059347e-003
1.560130e+003,7.026917e-003
1.562058e+003,6.940854e-003
1.563987e+003,6.971291e-003
1.565915e+003,6.695922e-003
1.567844e+003,6.045539e-003
1.569772e+003,6.031966e-003
1.571700e+003,6.072822e-003
1.573629e+003,5.746649e-003
1.575557e+003,5.696323e-003
1.577486e+003,5.776935e-003
1.579414e+003,5.535142e-003
1.581343e+003,5.210379e-003
1.583271e+003,5.006238e-003
1.585200e+003,4.798174e-003
1.587128e+003,4.768056e-003
1.589057e+003,4.621519e-003
1.590985e+003,4.218471e-003
1.592914e+003,4.166649e-003
1.594842e+003,4.141827e-003
1.596771e+003,3.884594e-003
1.598699e+003,3.385778e-003
1.600627e+003,3.150385e-003
1.602556e+003,3.063318e-003
1.604484e+003,2.981839e-003
1.606413e+003,3.137102e-003
1.608341e+003,3.170010e-003
1.610270e+003,3.125822e-003
1.612198e+003,2.728360e-003
1.614127e+003,2.332327e-003
1.616055e+003,2.140357e-003
1.617984e+003,2.040042e-003
1.619912e+003,1.967642e-003
1.621841e+003,1.863940e-003
1.623769e+003,1.409986e-003
1.625698e+003,1.092278e-003
1.627626e+003,1.122440e-003
1.629554e+003,1.101280e-003
1.631483e+003,1.019737e-003
1.633411e+003,1.086265e-003
1.635340e+003,9.260891e-004
1.637268e+003,7.029108e-004
1.639197e+003,5.960595e-004
1.641125e+003,4.731135e-004
1.643054e+003,5.732657e-004
1.644982e+003,5.048917e-004
1.646911e+003,3.016908e-004
1.648839e+003,2.262982e-004
1.650768e+003,2.167507e-004
1.652696e+003,1.574152e-004
1.654625e+003,3.644746e-007
1.656553e+003,-1.571926e-004
1.658481e+003,3.432822e-005
1.660410e+003,-1.050336e-005
1.662338e+003,-1.168480e-004
1.664267e+003,-9.823131e-005
1.666195e+003,-7.958067e-005
1.668124e+003,-5.168879e-006
1.670052e+003,-4.989700e-005
1.671981e+003,-1.382795e-004
1.673909e+003,-2.502224e-004
1.675838e+003,-3.232017e-004
1.677766e+003,-2.703228e-004
1.679695e+003,-1.531848e-004
1.681623e+003,-7.239184e-005
1.683552e+003,-1.287729e-004
1.685480e+003,-1.401013e-004
1.687408e+003,-3.538268e-004
1.689337e+003,-4.895776e-004
1.691265e+003,-4.928210e-004
1.693194e+003,-3.543896e-004
1.695122e+003,-3.768025e-004
1.697051e+003,-5.869372e-004
1.698979e+003,-5.949448e-004
1.700908e+003,-4.860031e-004
1.702836e+003,-7.226152e-004
1.704765e+003,-7.738183e-004
1.706693e+003,-7.806649e-004
1.708622e+003,-9.152574e-004
1.710550e+003,-9.884886e-004
1.712479e+003,-9.441546e-004
1.714407e+003,-9.705042e-004
1.716335e+003,-8.939634e-004
1.718264e+003,-8.523315e-004
1.720192e+003,-8.808030e-004
1.722121e+003,-9.464689e-004
1.724049e+003,-1.142978e-003
1.725978e+003,-1.283173e-003
1.727906e+003,-1.212238e-003
1.729835e+003,-1.334376e-003
1.731763e+003,-1.383427e-003
1.733692e+003,-1.551147e-003
1.735620e+003,-1.763750e-003
1.737549e+003,-1.668899e-003
1.739477e+003,-1.563363e-003
1.741406e+003,-1.710749e-003
1.743334e+003,-1.822981e-003
1.745262e+003,-1.558014e-003
1.747191e+003,-1.614335e-003
1.749119e+003,-1.732465e-003
1.751048e+003,-1.538601e-003
1.752976e+003,-1.454631e-003
1.754905e+003,-1.557618e-003
1.756833e+003,-1.564848e-003
1.758762e+003,-1.270751e-003
1.760690e+003,-1.212701e-003
1.762619e+003,-1.209992e-003
1.764547e+003,-1.219607e-003
1.766476e+003,-1.187159e-003
1.768404e+003,-1.132700e-003
1.770333e+003,-1.076614e-003
1.772261e+003,-9.874307e-004
1.774189e+003,-1.113895e-003
1.776118e+003,-1.219706e-003
1.778046e+003,-1.246799e-003
1.779975e+003,-1.295628e-003
1.781903e+003,-1.388447e-003
1.783832e+003,-1.510502e-003
1.785760e+003,-1.386961e-003
1.787689e+003,-1.333617e-003
1.789617e+003,-1.310064e-003
1.791546e+003,-1.328067e-003
1.793474e+003,-1.399280e-003
1.795403e+003,-1.508620e-003
1.797331e+003,-1.356210e-003
1.799260e+003,-1.338935e-003
1.801188e+003,-1.569767e-003
1.803116e+003,-1.601328e-003
1.805045e+003,-1.392311e-003
1.806973e+003,-1.248781e-003
1.808902e+003,-1.240257e-003
1.810830e+003,-1.244585e-003
1.812759e+003,-1.253836e-003
1.814687e+003,-1.255686e-003
1.816616e+003,-1.204242e-003
1.818544e+003,-1.354625e-003
1.820473e+003,-1.662594e-003
1.822401e+003,-1.728604e-003
1.824330e+003,-1.750517e-003
1.826258e+003,-1.746293e-003
1.828187e+003,-1.678471e-003
1.830115e+003,-1.590434e-003
1.832043e+003,-1.507828e-003
1.833972e+003,-1.489370e-003
1.835900e+003,-1.614797e-003
1.837829e+003,-1.912455e-003
1.839757e+003,-1.873131e-003
1.841686e+003,-1.833242e-003
1.843614e+003,-1.799388e-003
1.845543e+003,-1.774772e-003
1.847471e+003,-1.671539e-003
1.849400e+003,-1.779623e-003
1.851328e+003,-1.798927e-003
1.853257e+003,-1.739330e-003
1.855185e+003,-1.795099e-003
1.857114e+003,-1.800312e-003
1.859042e+003,-1.907869e-003
1.860970e+003,-1.956756e-003
1.862899e+003,-1.925749e-003
1.864827e+003,-1.926705e-003
1.866756e+003,-1.959164e-003
1.868684e+003,-1.941747e-003
1.870613e+003,-1.875902e-003
1.872541e+003,-1.828623e-003
1.874470e+003,-2.121881e-003
1.876398e+003,-2.342971e-003
1.878327e+003,-2.399355e-003
1.880255e+003,-2.532525e-003
1.882183e+003,-2.461794e-003
1.884112e+003,-2.357307e-003
1.886040e+003,-2.326559e-003
1.887969e+003,-2.229556e-003
1.889897e+003,-2.188843e-003
1.891826e+003,-2.347453e-003
1.893754e+003,-2.384461e-003
1.895683e+003,-2.256058e-003
1.897611e+003,-2.311003e-003
1.899540e+003,-2.524322e-003
1.901468e+003,-2.417511e-003
1.903397e+003,-2.176513e-003
1.905325e+003,-2.267958e-003
1.907254e+003,-2.279461e-003
1.909182e+003,-2.168007e-003
1.911110e+003,-2.398762e-003
1.913039e+003,-2.430757e-003
1.914967e+003,-2.171469e-003
1.916896e+003,-2.205821e-003
1.918824e+003,-2.359054e-003
1.920753e+003,-2.485449e-003
1.922681e+003,-2.336281e-003
1.924610e+003,-2.306686e-003
1.926538e+003,-2.374838e-003
1.928467e+003,-2.270331e-003
1.930395e+003,-2.320726e-003
1.932324e+003,-2.530383e-003
1.934252e+003,-2.497012e-003
1.936181e+003,-2.285855e-003
1.938109e+003,-2.197678e-003
1.940037e+003,-2.143148e-003
1.941966e+003,-2.072353e-003
1.943894e+003,-2.045642e-003
1.945823e+003,-2.124815e-003
1.947751e+003,-2.166622e-003
1.949680e+003,-2.251806e-003
1.951608e+003,-2.341060e-003
1.953537e+003,-2.521753e-003
1.955465e+003,-2.541550e-003
1.957394e+003,-2.350914e-003
1.959322e+003,-2.331140e-003
1.961251e+003,-2.371477e-003
1.963179e+003,-2.242478e-003
1.965108e+003,-2.144170e-003
1.967036e+003,-2.165237e-003
1.968964e+003,-2.194876e-003
1.970893e+003,-2.192832e-003
1.972821e+003,-2.231006e-003
1.974750e+003,-2.303851e-003
1.976678e+003,-2.433195e-003
1.978607e+003,-2.564411e-003
1.980535e+003,-2.330909e-003
1.982464e+003,-2.343004e-003
1.984392e+003,-2.406670e-003
1.986321e+003,-2.107307e-003
1.988249e+003,-2.102591e-003
1.990178e+003,-2.170150e-003
1.992106e+003,-2.318484e-003
1.994035e+003,-2.289283e-003
1.995963e+003,-2.201173e-003
1.997891e+003,-2.096887e-003
1.999820e+003,-1.918656e-003
2.001748e+003,-1.791733e-003
2.003677e+003,-1.853764e-003
2.005605e+003,-1.772198e-003
2.007534e+003,-1.719627e-003
2.009462e+003,-1.683619e-003
2.011391e+003,-1.682794e-003
2.013319e+003,-1.556396e-003
2.015248e+003,-1.408726e-003
2.017176e+003,-1.223505e-003
2.019105e+003,-1.023695e-003
2.021033e+003,-8.061315e-004
2.022962e+003,-6.238632e-004
2.024890e+003,-5.292918e-004
2.026818e+003,-4.374471e-004
2.028747e+003,-2.016732e-004
2.030675e+003,2.584532e-005
2.032604e+003,1.719666e-004
2.034532e+003,3.930481e-004
2.036461e+003,8.404624e-004
2.038389e+003,1.190745e-003
2.040318e+003,1.288870e-003
2.042246e+003,1.163037e-003
2.044175e+003,1.050924e-003
2.046103e+003,1.010471e-003
2.048032e+003,1.108554e-003
2.049960e+003,8.751891e-004
2.051889e+003,7.082540e-004
2.053817e+003,8.046762e-004
2.055746e+003,6.903328e-004
2.057674e+003,3.835633e-004
2.059603e+003,-4.250889e-005
2.061531e+003,-2.730049e-004
2.063459e+003,-5.020880e-004
2.065388e+003,-7.576444e-004
2.067316e+003,-1.057939e-003
2.069245e+003,-1.100246e-003
2.071173e+003,-1.125628e-003
2.073102e+003,-1.348943e-003
2.075030e+003,-1.483228e-003
2.076959e+003,-1.624898e-003
2.078887e+003,-1.821694e-003
2.080816e+003,-1.856635e-003
2.082744e+003,-1.955997e-003
2.084673e+003,-2.016587e-003
2.086601e+003,-2.113077e-003
2.088530e+003,-2.475071e-003
2.090458e+003,-2.510190e-003
2.092386e+003,-2.371543e-003
2.094315e+003,-2.391578e-003
2.096243e+003,-2.376091e-003
2.098172e+003,-2.418763e-003
2.100100e+003,-2.518392e-003
2.102029e+003,-2.354802e-003
2.103957e+003,-2.320989e-003
2.105886e+003,-2.487294e-003
2.107814e+003,-2.542045e-003
2.109743e+003,-2.377079e-003
2.111671e+003,-2.430822e-003
2.113600e+003,-2.650999e-003
2.115528e+003,-2.662722e-003
2.117457e+003,-2.557197e-003
2.119385e+003,-2.589608e-003
2.121313e+003,-2.743990e-003
2.123242e+003,-2.810395e-003
2.125170e+003,-2.734112e-003
2.127099e+003,-2.853025e-003
2.129027e+003,-3.031366e-003
2.130956e+003,-2.781424e-003
2.132884e+003,-2.466802e-003
2.134813e+003,-2.583383e-003
2.136741e+003,-2.595207e-003
2.138670e+003,-2.463770e-003
2.140598e+003,-2.491708e-003
2.142527e+003,-2.565992e-003
2.144455e+003,-2.601564e-003
2.146384e+003,-2.702601e-003
2.148312e+003,-2.741652e-003
2.150240e+003,-2.615595e-003
2.152169e+003,-2.415303e-003
2.154097e+003,-2.423145e-003
2.156026e+003,-2.542473e-003
2.157954e+003,-2.427297e-003
2.159883e+003,-2.434513e-003
2.161811e+003,-2.597480e-003
2.163740e+003,-2.778856e-003
2.165668e+003,-2.747414e-003
2.167597e+003,-2.683633e-003
2.169525e+003,-2.586776e-003
2.171454e+003,-2.550642e-003
2.173382e+003,-2.530779e-003
2.175311e+003,-2.322835e-003
2.177239e+003,-2.231698e-003
2.179167e+003,-2.401727e-003
2.181096e+003,-2.552849e-003
2.183024e+003,-2.565992e-003
2.184953e+003,-2.383406e-003
2.186881e+003,-2.377771e-003
2.188810e+003,-2.489139e-003
2.190738e+003,-2.324812e-003
2.192667e+003,-2.236149e-003
2.194595e+003,-2.053326e-003
2.196524e+003,-1.916050e-003
2.198452e+003,-1.917469e-003
2.200381e+003,-2.022193e-003
2.202309e+003,-2.075288e-003
2.204238e+003,-2.187788e-003
2.206166e+003,-2.168106e-003
2.208094e+003,-1.776653e-003
2.210023e+003,-1.735336e-003
2.211951e+003,-1.877024e-003
2.213880e+003,-1.765664e-003
2.215808e+003,-1.748009e-003
2.217737e+003,-1.831196e-003
2.219665e+003,-1.899292e-003
2.221594e+003,-1.864454e-003
2.223522e+003,-1.648896e-003
2.225451e+003,-1.530842e-003
2.227379e+003,-1.377448e-003
2.229308e+003,-1.249012e-003
2.231236e+003,-1.489469e-003
2.233165e+003,-1.528662e-003
2.235093e+003,-1.326845e-003
2.237021e+003,-1.426659e-003
2.238950e+003,-1.550850e-003
2.240878e+003,-1.530776e-003
2.242807e+003,-1.616150e-003
2.244735e+003,-1.635296e-003
2.246664e+003,-1.826049e-003
2.248592e+003,-1.942077e-003
2.250521e+003,-1.828887e-003
2.252449e+003,-1.800609e-003
2.254378e+003,-1.989047e-003
2.256306e+003,-2.161512e-003
2.258235e+003,-2.233643e-003
2.260163e+003,-2.461761e-003
2.262092e+003,-2.306554e-003
2.264020e+003,-2.064439e-003
2.265948e+003,-2.176414e-003
2.267877e+003,-2.318946e-003
2.269805e+003,-2.394511e-003
2.271734e+003,-2.450493e-003
2.273662e+003,-2.430263e-003
2.275591e+003,-2.479321e-003
2.277519e+003,-2.470261e-003
2.279448e+003,-2.391117e-003
2.281376e+003,-2.410130e-003
2.283305e+003,-2.225666e-003
2.285233e+003,-2.266771e-003
2.287162e+003,-2.712874e-003
2.289090e+003,-2.793869e-003
2.291019e+003,-2.805358e-003
2.292947e+003,-2.888245e-003
2.294875e+003,-2.803185e-003
2.296804e+003,-2.687486e-003
2.298732e+003,-2.514505e-003
2.300661e+003,-2.495530e-003
2.302589e+003,-2.734606e-003
2.304518e+003,-2.744846e-003
2.306446e+003,-2.573535e-003
2.308375e+003,-2.612433e-003
2.310303e+003,-2.655280e-003
2.312232e+003,-2.665587e-003
2.314160e+003,-2.573337e-003
2.316089e+003,-2.707803e-003
2.318017e+003,-2.870931e-003
2.319946e+003,-2.874322e-003
2.321874e+003,-2.779877e-003
2.323802e+003,-2.680110e-003
2.325731e+003,-2.830410e-003
2.327659e+003,-2.720052e-003
2.329588e+003,-2.593165e-003
2.331516e+003,-2.699538e-003
2.333445e+003,-2.599094e-003
2.335373e+003,-2.628834e-003
2.337302e+003,-2.668979e-003
2.339230e+003,-2.756073e-003
2.341159e+003,-2.603244e-003
2.343087e+003,-2.588060e-003
2.345016e+003,-2.619679e-003
2.346944e+003,-2.752748e-003
2.348873e+003,-2.675236e-003
2.350801e+003,-2.751266e-003
2.352729e+003,-2.655148e-003
2.354658e+003,-2.566651e-003
2.356586e+003,-2.699143e-003
2.358515e+003,-2.744813e-003
2.360443e+003,-2.612170e-003
2.362372e+003,-2.581934e-003
2.364300e+003,-2.668387e-003
2.366229e+003,-2.770955e-003
2.368157e+003,-2.663249e-003
2.370086e+003,-2.471842e-003
2.372014e+003,-2.595339e-003
2.373943e+003,-2.656926e-003
2.375871e+003,-2.504194e-003
2.377800e+003,-2.416654e-003
2.379728e+003,-2.339017e-003
2.381656e+003,-2.440938e-003
2.383585e+003,-2.528077e-003
2.385513e+003,-2.504425e-003
2.387442e+003,-2.561841e-003
2.389370e+003,-2.465319e-003
2.391299e+003,-2.347684e-003
2.393227e+003,-2.482978e-003
2.395156e+003,-2.596854e-003
2.397084e+003,-2.430592e-003
2.399013e+003,-2.156336e-003
2.400941e+003,-1.955403e-003
2.402870e+003,-1.860429e-003
2.404798e+003,-2.016191e-003
2.406727e+003,-2.076673e-003
2.408655e+003,-2.005208e-003
2.410583e+003,-1.868677e-003
2.412512e+003,-1.533582e-003
2.414440e+003,-1.554580e-003
2.416369e+003,-1.587265e-003
2.418297e+003,-1.349208e-003
2.420226e+003,-1.353634e-003
2.422154e+003,-1.520936e-003
2.424083e+003,-1.407636e-003
2.426011e+003,-1.134022e-003
2.427940e+003,-1.027992e-003
2.429868e+003,-1.041842e-003
2.431797e+003,-1.107649e-003
2.433725e+003,-1.070830e-003
2.435654e+003,-8.409555e-004
2.437582e+003,-7.396174e-004
2.439510e+003,-5.242284e-004
2.441439e+003,-6.563199e-004
2.443367e+003,-9.070904e-004
2.445296e+003,-8.901278e-004
2.447224e+003,-5.523575e-004
2.449153e+003,-3.084346e-004
2.451081e+003,-2.485998e-004
2.453010e+003,-1.434467e-004
2.454938e+003,-6.586548e-005
2.456867e+003,5.218925e-005
2.458795e+003,1.694143e-004
2.460724e+003,4.211541e-005
2.462652e+003,-1.279117e-004
2.464581e+003,-6.119426e-005
2.466509e+003,-6.765444e-005
2.468438e+003,7.790511e-005
2.470366e+003,3.328927e-004
2.472294e+003,3.638979e-004
2.474223e+003,5.911821e-004
2.476151e+003,5.963581e-004
2.478080e+003,7.754983e-004
2.480008e+003,9.793860e-004
2.481937e+003,1.175429e-003
2.483865e+003,1.488377e-003
2.485794e+003,1.477140e-003
2.487722e+003,1.671445e-003
2.489651e+003,2.155075e-003
2.491579e+003,2.410052e-003
2.493508e+003,2.658679e-003
2.495436e+003,2.817561e-003
2.497365e+003,2.777977e-003
2.499293e+003,2.750934e-003
2.501221e+003,2.874626e-003
2.503150e+003,3.073629e-003
2.505078e+003,3.215973e-003
2.507007e+003,3.336759e-003
2.508935e+003,3.330048e-003
2.510864e+003,3.486170e-003
2.512792e+003,3.646425e-003
2.514721e+003,3.741630e-003
2.516649e+003,3.647260e-003
2.518578e+003,3.719506e-003
2.520506e+003,3.577030e-003
2.522435e+003,3.259937e-003
2.524363e+003,3.467499e-003
2.526292e+003,3.621198e-003
2.528220e+003,3.683448e-003
2.530148e+003,3.763120e-003
2.532077e+003,3.472977e-003
2.534005e+003,3.444254e-003
2.535934e+003,3.541920e-003
2.537862e+003,3.389184e-003
2.539791e+003,3.107700e-003
2.541719e+003,2.898342e-003
2.543648e+003,2.926161e-003
2.545576e+003,2.607842e-003
2.547505e+003,2.377335e-003
2.549433e+003,2.554845e-003
2.551362e+003,2.747232e-003
2.553290e+003,2.633476e-003
2.555219e+003,2.594109e-003
2.557147e+003,2.379800e-003
2.559075e+003,2.290422e-003
2.561004e+003,2.286792e-003
2.562932e+003,2.130734e-003
2.564861e+003,1.937854e-003
2.566789e+003,1.940350e-003
2.568718e+003,2.026493e-003
2.570646e+003,2.099968e-003
2.572575e+003,2.259346e-003
2.574503e+003,2.526916e-003
2.576432e+003,2.518784e-003
2.578360e+003,2.207290e-003
2.580289e+003,1.817722e-003
2.582217e+003,1.968774e-003
2.584146e+003,2.386230e-003
2.586074e+003,2.493490e-003
2.588002e+003,2.508353e-003
2.589931e+003,2.552745e-003
2.591859e+003,2.448470e-003
2.593788e+003,2.579310e-003
2.595716e+003,2.498588e-003
2.597645e+003,2.260478e-003
2.599573e+003,2.132266e-003
2.601502e+003,2.079759e-003
2.603430e+003,2.127038e-003
2.605359e+003,2.059151e-003
2.607287e+003,2.082289e-003
2.609216e+003,2.116283e-003
2.611144e+003,1.844308e-003
2.613073e+003,1.831996e-003
2.615001e+003,1.610380e-003
2.616929e+003,1.215532e-003
2.618858e+003,1.104601e-003
2.620786e+003,1.095500e-003
2.622715e+003,1.155362e-003
2.624643e+003,1.351484e-003
2.626572e+003,1.271988e-003
2.628500e+003,1.015585e-003
2.630429e+003,8.523808e-004
2.632357e+003,6.160672e-004
2.634286e+003,1.481344e-004
2.636214e+003,1.146921e-004
2.638143e+003,2.355475e-004
2.640071e+003,1.799216e-005
2.642000e+003,-1.875346e-005
2.643928e+003,5.967851e-005
2.645856e+003,-1.236718e-004
2.647785e+003,-2.695943e-004
2.649713e+003,-2.811838e-004
2.651642e+003,-4.180497e-004
2.653570e+003,-3.428020e-004
2.655499e+003,-2.189277e-004
2.657427e+003,-3.128383e-004
2.659356e+003,-3.305850e-004
2.661284e+003,-2.528716e-004
2.663213e+003,-5.973657e-005
2.665141e+003,-7.056977e-005
2.667070e+003,-4.270203e-004
2.668998e+003,-8.358296e-004
2.670927e+003,-9.419064e-004
2.672855e+003,-7.177526e-004
2.674783e+003,-3.918320e-004
2.676712e+003,-1.932610e-004
2.678640e+003,-1.681889e-004
2.680569e+003,-2.511828e-004
2.682497e+003,-2.404534e-004
2.684426e+003,-1.733558e-004
2.686354e+003,-5.226400e-004
2.688283e+003,-7.715362e-004
2.690211e+003,-1.051878e-004
2.692140e+003,3.069628e-004
2.694068e+003,2.626335e-004
2.695997e+003,3.217513e-004
2.697925e+003,3.582273e-004
2.699854e+003,2.711210e-004
2.701782e+003,4.423990e-004
2.703710e+003,4.019030e-004
2.705639e+003,3.344844e-004
2.707567e+003,3.999463e-004
2.709496e+003,6.989614e-004
2.711424e+003,8.775464e-004
2.713353e+003,9.729767e-004
2.715281e+003,1.168086e-003
2.717210e+003,1.638085e-003
2.719138e+003,1.766118e-003
2.721067e+003,1.595082e-003
2.722995e+003,1.582246e-003
2.724924e+003,1.810435e-003
2.726852e+003,1.999630e-003
2.728781e+003,2.457667e-003
2.730709e+003,2.812992e-003
2.732637e+003,2.841940e-003
2.734566e+003,3.121817e-003
2.736494e+003,3.627981e-003
2.738423e+003,4.164675e-003
2.740351e+003,4.366010e-003
2.742280e+003,4.558633e-003
2.744208e+003,4.943262e-003
2.746137e+003,5.182010e-003
2.748065e+003,5.525175e-003
2.749994e+003,5.916204e-003
2.751922e+003,6.509447e-003
2.753851e+003,7.272036e-003
2.755779e+003,7.988952e-003
2.757708e+003,8.470651e-003
2.759636e+003,8.861772e-003
2.761564e+003,9.223225e-003
2.763493e+003,1.001589e-002
2.765421e+003,1.096208e-002
2.767350e+003,1.166684e-002
2.769278e+003,1.242883e-002
2.771207e+003,1.300458e-002
2.773135e+003,1.391578e-002
2.775064e+003,1.500992e-002
2.776992e+003,1.598858e-002
2.778921e+003,1.701008e-002
2.780849e+003,1.774209e-002
2.782778e+003,1.854259e-002
2.784706e+003,1.951411e-002
2.786635e+003,2.066590e-002
2.788563e+003,2.170885e-002
2.790491e+003,2.261526e-002
2.792420e+003,2.377710e-002
2.794348e+003,2.524044e-002
2.796277e+003,2.641383e-002
2.798205e+003,2.786469e-002
2.800134e+003,2.930149e-002
2.802062e+003,3.046470e-002
2.803991e+003,3.200307e-002
2.805919e+003,3.357581e-002
2.807848e+003,3.538605e-002
2.809776e+003,3.791922e-002
2.811705e+003,4.066840e-002
2.813633e+003,4.328391e-002
2.815562e+003,4.622117e-002
2.817490e+003,4.962093e-002
2.819418e+003,5.322576e-002
2.821347e+003,5.743751e-002
2.823275e+003,6.214295e-002
2.825204e+003,6.690279e-002
2.827132e+003,7.125492e-002
2.829061e+003,7.448567e-002
2.830989e+003,7.611274e-002
2.832918e+003,7.521130e-002
2.834846e+003,7.157823e-002
2.836775e+003,6.624554e-002
2.838703e+003,5.996287e-002
2.840632e+003,5.349241e-002
2.842560e+003,4.788204e-002
2.844489e+003,4.344087e-002
2.846417e+003,4.026484e-002
2.848345e+003,3.773425e-002
2.850274e+003,3.547301e-002
2.852202e+003,3.394901e-002
2.854131e+003,3.303768e-002
2.856059e+003,3.264518e-002
2.857988e+003,3.220029e-002
2.859916e+003,3.219701e-002
2.861845e+003,3.226581e-002
2.863773e+003,3.202077e-002
2.865702e+003,3.198068e-002
2.867630e+003,3.266583e-002
2.869558e+003,3.321769e-002
2.871487e+003,3.361110e-002
2.873415e+003,3.429776e-002
2.875344e+003,3.493360e-002
2.877272e+003,3.546467e-002
2.879201e+003,3.594639e-002
2.881129e+003,3.694217e-002
2.883058e+003,3.810967e-002
2.884986e+003,3.900486e-002
2.886915e+003,3.984426e-002
2.888843e+003,4.108632e-002
2.890771e+003,4.241965e-002
2.892700e+003,4.355232e-002
2.894628e+003,4.501655e-002
2.896557e+003,4.679236e-002
2.898485e+003,4.820736e-002
2.900414e+003,5.001778e-002
2.902342e+003,5.201084e-002
2.904271e+003,5.372134e-002
2.906199e+003,5.549628e-002
2.908128e+003,5.752575e-002
2.910056e+003,5.917890e-002
2.911985e+003,6.095585e-002
2.913913e+003,6.184542e-002
2.915842e+003,6.221032e-002
2.917770e+003,6.300692e-002
2.919698e+003,6.343099e-002
2.921627e+003,6.346788e-002
2.923555e+003,6.404848e-002
2.925484e+003,6.509692e-002
2.927412e+003,6.572426e-002
2.929341e+003,6.664587e-002
2.931269e+003,6.869925e-002
2.933198e+003,7.071309e-002
2.935126e+003,7.260991e-002
2.937055e+003,7.452720e-002
2.938983e+003,7.609734e-002
2.940912e+003,7.724036e-002
2.942840e+003,7.777134e-002
2.944769e+003,7.782714e-002
2.946697e+003,7.658613e-002
2.948625e+003,7.417076e-002
2.950554e+003,7.155620e-002
2.952482e+003,6.848990e-002
2.954411e+003,6.516460e-002
2.956339e+003,6.212720e-002
2.958268e+003,5.916910e-002
2.960196e+003,5.612780e-002
2.962125e+003,5.388122e-002
2.964053e+003,5.263593e-002
2.965982e+003,5.135649e-002
2.967910e+003,5.034292e-002
2.969839e+003,4.949191e-002
2.971767e+003,4.875325e-002
2.973696e+003,4.806484e-002
2.975624e+003,4.807180e-002
2.977552e+003,4.804915e-002
2.979481e+003,4.743018e-002
2.981409e+003,4.658018e-002
2.983338e+003,4.567349e-002
2.985266e+003,4.408777e-002
2.987195e+003,4.292799e-002
2.989123e+003,4.178837e-002
2.991052e+003,3.964111e-002
2.992980e+003,3.744680e-002
2.994909e+003,3.580420e-002
2.996837e+003,3.423150e-002
2.998766e+003,3.247650e-002
3.000694e+003,3.086914e-002
3.002623e+003,2.938742e-002
3.004551e+003,2.832288e-002
3.006479e+003,2.712224e-002
3.008408e+003,2.563459e-002
3.010336e+003,2.470496e-002
3.012265e+003,2.407280e-002
3.014193e+003,2.354372e-002
3.016122e+003,2.258228e-002
3.018050e+003,2.189524e-002
3.019979e+003,2.163644e-002
3.021907e+003,2.109661e-002
3.023836e+003,2.109884e-002
3.025764e+003,2.143978e-002
3.027693e+003,2.095458e-002
3.029621e+003,1.997106e-002
3.031550e+003,1.962711e-002
3.033478e+003,1.977134e-002
3.035406e+003,1.979485e-002
3.037335e+003,1.939370e-002
3.039263e+003,1.926576e-002
3.041192e+003,1.940534e-002
3.043120e+003,1.951882e-002
3.045049e+003,1.936113e-002
3.046977e+003,1.904089e-002
3.048906e+003,1.865720e-002
3.050834e+003,1.850787e-002
3.052763e+003,1.860778e-002
3.054691e+003,1.886039e-002
3.056620e+003,1.871293e-002
3.058548e+003,1.836441e-002
3.060477e+003,1.869110e-002
3.062405e+003,1.881696e-002
3.064333e+003,1.900779e-002
3.066262e+003,1.906021e-002
3.068190e+003,1.880762e-002
3.070119e+003,1.889281e-002
3.072047e+003,1.893905e-002
3.073976e+003,1.918697e-002
3.075904e+003,1.965016e-002
3.077833e+003,1.963456e-002
3.079761e+003,1.961165e-002
3.081690e+003,2.020443e-002
3.083618e+003,2.060787e-002
3.085547e+003,2.046951e-002
3.087475e+003,2.044332e-002
3.089404e+003,2.074579e-002
3.091332e+003,2.094432e-002
3.093260e+003,2.109738e-002
3.095189e+003,2.159736e-002
3.097117e+003,2.201161e-002
3.099046e+003,2.198488e-002
3.100974e+003,2.247064e-002
3.102903e+003,2.299562e-002
3.104831e+003,2.334564e-002
3.106760e+003,2.391900e-002
3.108688e+003,2.467700e-002
3.110617e+003,2.492250e-002
3.112545e+003,2.515346e-002
3.114474e+003,2.537531e-002
3.116402e+003,2.597894e-002
3.118331e+003,2.676937e-002
3.120259e+003,2.749064e-002
3.122188e+003,2.804678e-002
3.124116e+003,2.870536e-002
3.126044e+003,2.942237e-002
3.127973e+003,2.973018e-002
3.129901e+003,3.001568e-002
3.131830e+003,3.090796e-002
3.133758e+003,3.178809e-002
3.135687e+003,3.238032e-002
3.137615e+003,3.293997e-002
3.139544e+003,3.328401e-002
3.141472e+003,3.385855e-002
3.143401e+003,3.449089e-002
3.145329e+003,3.526744e-002
3.147258e+003,3.588074e-002
3.149186e+003,3.663671e-002
3.151115e+003,3.743972e-002
3.153043e+003,3.821364e-002
3.154971e+003,3.897050e-002
3.156900e+003,4.034195e-002
3.158828e+003,4.153056e-002
3.160757e+003,4.187685e-002
3.162685e+003,4.201140e-002
3.164614e+003,4.289247e-002
3.166542e+003,4.398979e-002
3.168471e+003,4.509098e-002
3.170399e+003,4.569671e-002
3.172328e+003,4.629887e-002
3.174256e+003,4.788038e-002
3.176185e+003,4.928279e-002
3.178113e+003,5.007400e-002
3.180042e+003,5.084751e-002
3.181970e+003,5.167255e-002
3.183898e+003,5.297886e-002
3.185827e+003,5.396488e-002
3.187755e+003,5.448992e-002
3.189684e+003,5.582897e-002
3.191612e+003,5.782245e-002
3.193541e+003,5.914024e-002
3.195469e+003,5.983876e-002
3.197398e+003,6.050748e-002
3.199326e+003,6.125403e-002
3.201255e+003,6.274983e-002
3.203183e+003,6.445678e-002
3.205112e+003,6.548756e-002
3.207040e+003,6.615189e-002
3.208969e+003,6.768408e-002
3.210897e+003,6.896209e-002
3.212825e+003,6.990613e-002
3.214754e+003,7.116240e-002
3.216682e+003,7.253499e-002
3.218611e+003,7.325502e-002
3.220539e+003,7.406154e-002
3.222468e+003,7.574939e-002
3.224396e+003,7.742097e-002
3.226325e+003,7.897989e-002
3.228253e+003,8.043930e-002
3.230182e+003,8.098531e-002
3.232110e+003,8.179653e-002
3.234039e+003,8.317363e-002
3.235967e+003,8.403812e-002
3.237896e+003,8.538649e-002
3.239824e+003,8.695538e-002
3.241752e+003,8.828800e-002
3.243681e+003,8.909375e-002
3.245609e+003,8.958152e-002
3.247538e+003,9.044317e-002
3.249466e+003,9.165429e-002
3.251395e+003,9.263578e-002
3.253323e+003,9.366813e-002
3.255252e+003,9.524149e-002
3.257180e+003,9.628762e-002
3.259109e+003,9.686077e-002
3.261037e+003,9.792078e-002
3.262966e+003,9.880248e-002
3.264894e+003,9.930328e-002
3.266823e+003,1.002258e-001
3.268751e+003,1.012527e-001
3.270679e+003,1.013337e-001
3.272608e+003,1.018136e-001
3.274536e+003,1.023193e-001
3.276465e+003,1.033430e-001
3.278393e+003,1.042438e-001
3.280322e+003,1.051157e-001
3.282250e+003,1.059222e-001
3.284179e+003,1.059714e-001
3.286107e+003,1.069085e-001
3.288036e+003,1.071935e-001
3.289964e+003,1.074284e-001
3.291893e+003,1.080705e-001
3.293821e+003,1.084909e-001
3.295750e+003,1.088212e-001
3.297678e+003,1.094731e-001
3.299606e+003,1.099166e-001
3.301535e+003,1.095568e-001
3.303463e+003,1.093261e-001
3.305392e+003,1.096108e-001
3.307320e+003,1.105865e-001
3.309249e+003,1.111453e-001
3.311177e+003,1.111741e-001
3.313106e+003,1.109778e-001
3.315034e+003,1.108165e-001
3.316963e+003,1.108854e-001
3.318891e+003,1.115152e-001
3.320820e+003,1.116729e-001
3.322748e+003,1.107211e-001
3.324677e+003,1.097158e-001
3.326605e+003,1.095812e-001
3.328533e+003,1.097929e-001
3.330462e+003,1.102466e-001
3.332390e+003,1.100400e-001
3.334319e+003,1.095603e-001
3.336247e+003,1.088852e-001
3.338176e+003,1.083067e-001
3.340104e+003,1.077702e-001
3.342033e+003,1.070713e-001
3.343961e+003,1.069087e-001
3.345890e+003,1.062984e-001
3.347818e+003,1.059384e-001
3.349747e+003,1.052688e-001
3.351675e+003,1.051801e-001
3.353604e+003,1.042540e-001
3.355532e+003,1.027246e-001
3.357460e+003,1.022435e-001
3.359389e+003,1.023062e-001
3.361317e+003,1.012861e-001
3.363246e+003,1.002550e-001
3.365174e+003,9.950794e-002
3.367103e+003,9.848362e-002
3.369031e+003,9.759158e-002
3.370960e+003,9.631930e-002
3.372888e+003,9.563420e-002
3.374817e+003,9.518369e-002
3.376745e+003,9.394082e-002
3.378674e+003,9.291771e-002
3.380602e+003,9.200982e-002
3.382531e+003,9.132673e-002
3.384459e+003,9.021366e-002
3.386387e+003,8.851930e-002
3.388316e+003,8.733203e-002
3.390244e+003,8.579575e-002
3.392173e+003,8.430949e-002
3.394101e+003,8.286086e-002
3.396030e+003,8.154219e-002
3.397958e+003,8.130911e-002
3.399887e+003,8.008710e-002
3.401815e+003,7.810160e-002
3.403744e+003,7.706828e-002
3.405672e+003,7.589810e-002
3.407601e+003,7.482607e-002
3.409529e+003,7.453369e-002
3.411458e+003,7.397829e-002
3.413386e+003,7.224818e-002
3.415314e+003,7.077825e-002
3.417243e+003,6.956847e-002
3.419171e+003,6.826007e-002
3.421100e+003,6.744748e-002
3.423028e+003,6.683067e-002
3.424957e+003,6.589244e-002
3.426885e+003,6.479240e-002
3.428814e+003,6.364297e-002
3.430742e+003,6.286088e-002
3.432671e+003,6.244026e-002
3.434599e+003,6.113264e-002
3.436528e+003,5.960521e-002
3.438456e+003,5.852632e-002
3.440385e+003,5.729397e-002
3.442313e+003,5.611279e-002
3.444241e+003,5.518927e-002
3.446170e+003,5.478726e-002
3.448098e+003,5.316708e-002
3.450027e+003,5.171805e-002
3.451955e+003,5.107389e-002
3.453884e+003,5.112578e-002
3.455812e+003,5.053826e-002
3.457741e+003,4.895329e-002
3.459669e+003,4.704470e-002
3.461598e+003,4.607802e-002
3.463526e+003,4.545769e-002
3.465455e+003,4.457926e-002
3.467383e+003,4.377098e-002
3.469312e+003,4.291654e-002
3.471240e+003,4.121123e-002
3.473168e+003,4.026688e-002
3.475097e+003,4.019668e-002
3.477025e+003,3.873667e-002
3.478954e+003,3.820402e-002
3.480882e+003,3.778373e-002
3.482811e+003,3.558146e-002
3.484739e+003,3.458740e-002
3.486668e+003,3.441140e-002
3.488596e+003,3.308916e-002
3.490525e+003,3.253696e-002
3.492453e+003,3.165495e-002
3.494382e+003,3.004917e-002
3.496310e+003,2.864023e-002
3.498239e+003,2.798850e-002
3.500167e+003,2.723928e-002
3.502095e+003,2.616095e-002
3.504024e+003,2.570219e-002
3.505952e+003,2.522755e-002
3.507881e+003,2.374521e-002
3.509809e+003,2.287262e-002
3.511738e+003,2.281710e-002
3.513666e+003,2.200611e-002
3.515595e+003,2.053463e-002
3.517523e+003,1.918680e-002
3.519452e+003,1.871542e-002
3.521380e+003,1.811785e-002
3.523309e+003,1.711184e-002
3.525237e+003,1.692528e-002
3.527166e+003,1.615709e-002
3.529094e+003,1.494173e-002
3.531022e+003,1.495226e-002
3.532951e+003,1.472210e-002
3.534879e+003,1.399225e-002
3.536808e+003,1.299390e-002
3.538736e+003,1.182875e-002
3.540665e+003,1.069232e-002
3.542593e+003,1.056282e-002
3.544522e+003,1.087805e-002
3.546450e+003,9.635689e-003
3.548379e+003,8.543434e-003
3.550307e+003,8.859642e-003
3.552236e+003,8.775784e-003
3.554164e+003,7.771155e-003
3.556093e+003,6.725299e-003
3.558021e+003,6.119328e-003
3.559949e+003,5.387474e-003
3.561878e+003,4.953786e-003
3.563806e+003,4.299780e-003
3.565735e+003,3.947015e-003
3.567663e+003,4.239283e-003
3.569592e+003,3.441114e-003
3.571520e+003,3.080837e-003
3.573449e+003,3.009931e-003
3.575377e+003,2.601275e-003
3.577306e+003,2.755368e-003
3.579234e+003,2.942140e-003
3.581163e+003,2.537047e-003
3.583091e+003,1.529606e-003
3.585020e+003,4.393144e-004
3.586948e+003,-2.945942e-004
3.588876e+003,-4.146071e-004
3.590805e+003,-6.165842e-004
3.592733e+003,-9.237548e-004
3.594662e+003,-1.262029e-003
3.596590e+003,-1.235763e-003
3.598519e+003,-1.119183e-003
3.600447e+003,-1.370975e-003
3.602376e+003,-1.718373e-003
3.604304e+003,-1.402253e-003
3.606233e+003,-1.501422e-003
3.608161e+003,-2.074694e-003
3.610090e+003,-2.860596e-003
3.612018e+003,-2.827217e-003
3.613947e+003,-1.867357e-003
3.615875e+003,-1.727680e-003
3.617803e+003,-2.269012e-003
3.619732e+003,-3.169835e-003
3.621660e+003,-3.291752e-003
3.623589e+003,-3.024588e-003
3.625517e+003,-3.164046e-003
3.627446e+003,-3.266826e-003
3.629374e+003,-2.857436e-003
3.631303e+003,-3.361756e-003
3.633231e+003,-3.643369e-003
3.635160e+003,-3.716667e-003
3.637088e+003,-3.284978e-003
3.639017e+003,-2.782083e-003
3.640945e+003,-3.529043e-003
3.642874e+003,-4.283547e-003
3.644802e+003,-4.222354e-003
3.646730e+003,-4.015810e-003
3.648659e+003,-4.388457e-003
3.650587e+003,-3.905654e-003
3.652516e+003,-3.112268e-003
3.654444e+003,-3.226703e-003
3.656373e+003,-4.039807e-003
3.658301e+003,-4.765307e-003
3.660230e+003,-5.180434e-003
3.662158e+003,-4.733451e-003
3.664087e+003,-4.684384e-003
3.666015e+003,-4.547020e-003
3.667944e+003,-4.156558e-003
3.669872e+003,-4.085632e-003
3.671801e+003,-4.114549e-003
3.673729e+003,-3.860106e-003
3.675657e+003,-4.146680e-003
3.677586e+003,-4.234265e-003
3.679514e+003,-4.093378e-003
3.681443e+003,-4.368972e-003
3.683371e+003,-4.171622e-003
3.685300e+003,-3.924962e-003
3.687228e+003,-3.845131e-003
3.689157e+003,-4.100895e-003
3.691085e+003,-4.505442e-003
3.693014e+003,-4.165222e-003
3.694942e+003,-3.841190e-003
3.696871e+003,-3.536241e-003
3.698799e+003,-3.773628e-003
3.700728e+003,-4.232296e-003
3.702656e+003,-4.280069e-003
3.704584e+003,-3.754281e-003
3.706513e+003,-3.323287e-003
3.708441e+003,-3.682467e-003
3.710370e+003,-4.267634e-003
3.712298e+003,-4.085862e-003
3.714227e+003,-3.984030e-003
3.716155e+003,-4.014891e-003
3.718084e+003,-4.251983e-003
3.720012e+003,-4.306676e-003
3.721941e+003,-4.032946e-003
3.723869e+003,-3.918329e-003
3.725798e+003,-3.680397e-003
3.727726e+003,-3.831140e-003
3.729655e+003,-3.981732e-003
3.731583e+003,-3.854162e-003
3.733511e+003,-3.620401e-003
3.735440e+003,-3.555631e-003
3.737368e+003,-3.947947e-003
3.739297e+003,-4.161612e-003
3.741225e+003,-4.002054e-003
3.743154e+003,-4.097481e-003
3.745082e+003,-4.281611e-003
3.747011e+003,-4.194396e-003
3.748939e+003,-4.012691e-003
3.750868e+003,-4.175592e-003
3.752796e+003,-4.161579e-003
3.754725e+003,-3.846970e-003
3.756653e+003,-3.679576e-003
3.758582e+003,-3.819448e-003
3.760510e+003,-4.250376e-003
3.762438e+003,-4.326295e-003
3.764367e+003,-4.113761e-003
3.766295e+003,-3.944893e-003
3.768224e+003,-3.898561e-003
3.770152e+003,-4.029762e-003
3.772081e+003,-4.704182e-003
3.774009e+003,-4.899719e-003
3.775938e+003,-4.602791e-003
3.777866e+003,-4.169423e-003
3.779795e+003,-3.883883e-003
3.781723e+003,-4.112120e-003
3.783652e+003,-3.848152e-003
3.785580e+003,-3.303558e-003
3.787509e+003,-3.948505e-003
3.789437e+003,-4.431555e-003
3.791365e+003,-4.777367e-003
3.793294e+003,-4.868921e-003
3.795222e+003,-4.110052e-003
3.797151e+003,-4.087142e-003
3.799079e+003,-4.043976e-003
3.801008e+003,-4.251163e-003
3.802936e+003,-4.409121e-003
3.804865e+003,-4.526822e-003
3.806793e+003,-4.487308e-003
3.808722e+003,-4.227243e-003
3.810650e+003,-3.816787e-003
3.812579e+003,-3.925520e-003
3.814507e+003,-4.161809e-003
3.816436e+003,-4.460318e-003
3.818364e+003,-4.389965e-003
3.820292e+003,-3.731384e-003
3.822221e+003,-3.991188e-003
3.824149e+003,-4.442542e-003
3.826078e+003,-4.634460e-003
3.828006e+003,-4.095512e-003
3.829935e+003,-3.628878e-003
3.831863e+003,-3.844671e-003
3.833792e+003,-4.223995e-003
3.835720e+003,-4.235151e-003
3.837649e+003,-3.855837e-003
3.839577e+003,-3.501829e-003
3.841506e+003,-3.862241e-003
3.843434e+003,-4.825145e-003
3.845363e+003,-4.790574e-003
3.847291e+003,-4.634132e-003
3.849219e+003,-4.651932e-003
3.851148e+003,-4.540922e-003
3.853076e+003,-4.143398e-003
3.855005e+003,-3.611036e-003
3.856933e+003,-4.120226e-003
3.858862e+003,-5.059144e-003
3.860790e+003,-5.173624e-003
3.862719e+003,-4.627805e-003
3.864647e+003,-3.785814e-003
3.866576e+003,-3.154802e-003
3.868504e+003,-3.717948e-003
3.870433e+003,-4.078542e-003
3.872361e+003,-3.976183e-003
3.874290e+003,-3.963017e-003
3.876218e+003,-3.784927e-003
3.878146e+003,-3.913962e-003
3.880075e+003,-3.953102e-003
3.882003e+003,-4.156066e-003
3.883932e+003,-4.493013e-003
3.885860e+003,-4.511902e-003
3.887789e+003,-4.366939e-003
3.889717e+003,-4.189113e-003
3.891646e+003,-4.008194e-003
3.893574e+003,-3.647837e-003
3.895503e+003,-3.813109e-003
3.897431e+003,-4.437984e-003
3.899360e+003,-4.677271e-003
3.901288e+003,-4.383143e-003
3.903217e+003,-4.241025e-003
3.905145e+003,-4.293717e-003
3.907073e+003,-4.320226e-003
3.909002e+003,-4.084188e-003
3.910930e+003,-3.763412e-003
3.912859e+003,-3.768405e-003
3.914787e+003,-3.871633e-003
3.916716e+003,-4.537610e-003
3.918644e+003,-4.673305e-003
3.920573e+003,-4.659111e-003
3.922501e+003,-4.613478e-003
3.924430e+003,-4.293094e-003
3.926358e+003,-3.987839e-003
3.928287e+003,-4.120423e-003
3.930215e+003,-4.477568e-003
3.932144e+003,-4.432342e-003
3.934072e+003,-4.092623e-003
3.936000e+003,-4.039118e-003
3.937929e+003,-4.542266e-003
3.939857e+003,-4.564890e-003
3.941786e+003,-4.239121e-003
3.943714e+003,-4.131714e-003
3.945643e+003,-4.041252e-003
3.947571e+003,-4.723553e-003
3.949500e+003,-4.752001e-003
3.951428e+003,-4.069482e-003
3.953357e+003,-4.458842e-003
3.955285e+003,-4.305922e-003
3.957214e+003,-3.963280e-003
3.959142e+003,-3.813634e-003
3.961071e+003,-3.860665e-003
3.962999e+003,-4.393803e-003
3.964927e+003,-4.313992e-003
3.966856e+003,-4.255822e-003
3.968784e+003,-3.833110e-003
3.970713e+003,-3.356167e-003
3.972641e+003,-3.284715e-003
3.974570e+003,-3.170361e-003
3.976498e+003,-3.315527e-003
3.978427e+003,-3.495584e-003
3.980355e+003,-3.223809e-003
3.982284e+003,-3.108781e-003
3.984212e+003,-2.883439e-003
3.986141e+003,-2.746097e-003
3.988069e+003,-3.547185e-003
3.989998e+003,-3.272811e-003
3.991926e+003,-3.302966e-003
3.993854e+003,-3.608210e-003
3.995783e+003,-3.794551e-003
3.997711e+003,-4.290830e-003
3.999640e+003,-4.512263e-003
4.001568e+003,0.000000e+000
