3.991927e+002,0.000000e+000
4.011211e+002,0.000000e+000
4.030496e+002,0.000000e+000
4.049781e+002,0.000000e+000
4.069065e+002,0.000000e+000
4.088350e+002,0.000000e+000
4.107635e+002,0.000000e+000
4.126919e+002,0.000000e+000
4.146204e+002,0.000000e+000
4.165489e+002,0.000000e+000
4.184773e+002,0.000000e+000
4.204058e+002,0.000000e+000
4.223343e+002,0.000000e+000
4.242627e+002,0.000000e+000
4.261912e+002,0.000000e+000
4.281197e+002,0.000000e+000
4.300481e+002,0.000000e+000
4.319766e+002,0.000000e+000
4.339051e+002,0.000000e+000
4.358335e+002,0.000000e+000
4.377620e+002,0.000000e+000
4.396905e+002,0.000000e+000
4.416189e+002,0.000000e+000
4.435474e+002,0.000000e+000
4.454759e+002,0.000000e+000
4.474043e+002,0.000000e+000
4.493328e+002,0.000000e+000
4.512613e+002,0.000000e+000
4.531897e+002,0.000000e+000
4.551182e+002,0.000000e+000
4.570467e+002,0.000000e+000
4.589751e+002,0.000000e+000
4.609036e+002,0.000000e+000
4.628321e+002,0.000000e+000
4.647605e+002,0.000000e+000
4.666890e+002,0.000000e+000
4.686175e+002,0.000000e+000
4.705459e+002,0.000000e+000
4.724744e+002,0.000000e+000
4.744029e+002,0.000000e+000
4.763313e+002,0.000000e+000
4.782598e+002,0.000000e+000
4.801883e+002,0.000000e+000
4.821167e+002,0.000000e+000
4.840452e+002,0.000000e+000
4.859737e+002,0.000000e+000
4.879021e+002,0.000000e+000
4.898306e+002,0.000000e+000
4.917591e+002,0.000000e+000
4.936875e+002,0.000000e+000
4.956160e+002,0.000000e+000
4.975445e+002,0.000000e+000
4.994729e+002,0.000000e+000
5.014014e+002,0.000000e+000
5.033299e+002,0.000000e+000
5.052583e+002,0.000000e+000
5.071868e+002,0.000000e+000
5.091153e+002,0.000000e+000
5.110437e+002,0.000000e+000
5.129722e+002,0.000000e+000
5.149006e+002,0.000000e+000
5.168291e+002,0.000000e+000
5.187576e+002,0.000000e+000
5.206860e+002,0.000000e+000
5.226145e+002,0.000000e+000
5.245430e+002,0.000000e+000
5.264714e+002,0.000000e+000
5.283999e+002,0.000000e+000
5.303284e+002,0.000000e+000
5.322568e+002,0.000000e+000
5.341853e+002,0.000000e+000
5.361138e+002,0.000000e+000
5.380422e+002,0.000000e+000
5.399707e+002,0.000000e+000
5.418992e+002,0.000000e+000
5.438276e+002,0.000000e+000
5.457561e+002,0.000000e+000
5.476846e+002,0.000000e+000
5.496130e+002,0.000000e+000
5.515415e+002,0.000000e+000
5.534700e+002,0.000000e+000
5.553984e+002,0.000000e+000
5.573269e+002,0.000000e+000
5.592554e+002,0.000000e+000
5.611838e+002,0.000000e+000
5.631123e+002,0.000000e+000
5.650408e+002,0.000000e+000
5.669692e+002,0.000000e+000
5.688977e+002,0.000000e+000
5.708262e+002,0.000000e+000
5.727546e+002,0.000000e+000
5.746831e+002,0.000000e+000
5.766116e+002,0.000000e+000
5.785400e+002,0.000000e+000
5.804685e+002,0.000000e+000
5.823970e+002,0.000000e+000
5.843254e+002,0.000000e+000
5.862539e+002,0.000000e+000
5.881824e+002,0.000000e+000
5.901108e+002,0.000000e+000
5.920393e+002,0.000000e+000
5.939678e+002,0.000000e+000
5.958962e+002,0.000000e+000
5.978247e+002,0.000000e+000
5.997532e+002,0.000000e+000
6.016816e+002,0.000000e+000
6.036101e+002,0.000000e+000
6.055386e+002,0.000000e+000
6.074670e+002,0.000000e+000
6.093955e+002,0.000000e+000
6.113240e+002,0.000000e+000
6.132524e+002,0.000000e+000
6.151809e+002,0.000000e+000
6.171094e+002,0.000000e+000
6.190378e+002,0.000000e+000
6.209663e+002,0.000000e+000
6.228948e+002,0.000000e+000
6.248232e+002,0.000000e+000
6.267517e+002,0.000000e+000
6.286802e+002,0.000000e+000
6.306086e+002,0.000000e+000
6.325371e+002,0.000000e+000
6.344656e+002,0.000000e+000
6.363940e+002,0.000000e+000
6.383225e+002,0.000000e+000
6.402510e+002,0.000000e+000
6.421794e+002,0.000000e+000
6.441079e+002,0.000000e+000
6.460364e+002,0.000000e+000
6.479648e+002,0.000000e+000
6.498933e+002,3.862631e-001
6.518218e+002,3.841066e-001
6.537502e+002,3.812176e-001
6.556787e+002,3.785743e-001
6.576072e+002,3.781940e-001
6.595356e+002,3.767007e-001
6.614641e+002,3.732637e-001
6.633926e+002,3.719576e-001
6.653210e+002,3.684963e-001
6.672495e+002,3.648796e-001
6.691780e+002,3.613011e-001
6.711064e+002,3.578587e-001
6.730349e+002,3.553140e-001
6.749634e+002,3.528135e-001
6.768918e+002,3.512525e-001
6.788203e+002,3.482926e-001
6.807488e+002,3.460852e-001
6.826772e+002,3.438189e-001
6.846057e+002,3.414206e-001
6.865342e+002,3.378226e-001
6.884626e+002,3.357696e-001
6.903911e+002,3.339862e-001
6.923196e+002,3.311957e-001
6.942480e+002,3.289626e-001
6.961765e+002,3.273126e-001
6.981050e+002,3.256401e-001
7.000334e+002,3.231983e-001
7.019619e+002,3.206317e-001
7.038904e+002,3.187818e-001
7.058188e+002,3.159812e-001
7.077473e+002,3.141532e-001
7.096758e+002,3.122174e-001
7.116042e+002,3.092044e-001
7.135327e+002,3.063107e-001
7.154612e+002,3.036314e-001
7.173896e+002,2.990921e-001
7.193181e+002,2.933344e-001
7.212466e+002,2.919397e-001
7.231750e+002,2.912325e-001
7.251035e+002,2.871555e-001
7.270320e+002,2.839982e-001
7.289604e+002,2.817386e-001
7.308889e+002,2.791735e-001
7.328174e+002,2.771783e-001
7.347458e+002,2.741006e-001
7.366743e+002,2.696915e-001
7.386028e+002,2.681772e-001
7.405313e+002,2.674089e-001
7.424597e+002,2.640220e-001
7.443882e+002,2.596182e-001
7.463167e+002,2.575400e-001
7.482451e+002,2.558333e-001
7.501736e+002,2.538549e-001
7.521021e+002,2.508513e-001
7.540305e+002,2.473179e-001
7.559590e+002,2.435204e-001
7.578875e+002,2.404003e-001
7.598159e+002,2.381536e-001
7.617444e+002,2.368101e-001
7.636729e+002,2.345262e-001
7.656013e+002,2.316471e-001
7.675298e+002,2.292252e-001
7.694583e+002,2.272144e-001
7.713867e+002,2.246926e-001
7.733152e+002,2.216186e-001
7.752437e+002,2.191894e-001
7.771721e+002,2.163163e-001
7.791006e+002,2.137374e-001
7.810291e+002,2.113253e-001
7.829575e+002,2.083201e-001
7.848860e+002,2.047901e-001
7.868145e+002,2.021219e-001
7.887429e+002,1.996141e-001
7.906714e+002,1.970839e-001
7.925999e+002,1.942409e-001
7.945283e+002,1.911614e-001
7.964568e+002,1.870689e-001
7.983853e+002,1.834901e-001
8.003137e+002,1.809751e-001
8.022422e+002,1.779179e-001
8.041707e+002,1.748712e-001
8.060991e+002,1.734741e-001
8.080276e+002,1.724080e-001
8.099561e+002,1.694056e-001
8.118845e+002,1.668669e-001
8.138130e+002,1.636221e-001
8.157415e+002,1.613591e-001
8.176699e+002,1.603768e-001
8.195984e+002,1.580267e-001
8.215269e+002,1.556199e-001
8.234553e+002,1.532004e-001
8.253838e+002,1.505255e-001
8.273123e+002,1.488163e-001
8.292407e+002,1.473715e-001
8.311692e+002,1.455802e-001
8.330977e+002,1.440300e-001
8.350261e+002,1.421394e-001
8.369546e+002,1.398150e-001
8.388831e+002,1.386719e-001
8.408115e+002,1.373000e-001
8.427400e+002,1.343649e-001
8.446685e+002,1.309518e-001
8.465969e+002,1.303521e-001
8.485254e+002,1.293158e-001
8.504539e+002,1.262737e-001
8.523823e+002,1.240536e-001
8.543108e+002,1.221533e-001
8.562393e+002,1.201712e-001
8.581677e+002,1.183018e-001
8.600962e+002,1.167048e-001
8.620247e+002,1.150012e-001
8.639531e+002,1.133238e-001
8.658816e+002,1.119865e-001
8.678101e+002,1.098190e-001
8.697385e+002,1.072012e-001
8.716670e+002,1.050074e-001
8.735955e+002,1.034924e-001
8.755239e+002,1.016987e-001
8.774524e+002,9.845000e-002
8.793809e+002,9.584589e-002
8.813093e+002,9.403832e-002
8.832378e+002,9.243668e-002
8.851663e+002,9.110272e-002
8.870947e+002,9.013011e-002
8.890232e+002,8.925052e-002
8.909517e+002,8.833762e-002
8.928801e+002,8.700893e-002
8.948086e+002,8.577237e-002
8.967371e+002,8.482119e-002
8.986655e+002,8.394858e-002
9.005940e+002,8.279394e-002
9.025225e+002,8.135111e-002
9.044509e+002,8.002216e-002
9.063794e+002,7.865547e-002
9.083079e+002,7.690094e-002
9.102363e+002,7.523467e-002
9.121648e+002,7.417186e-002
9.140933e+002,7.320023e-002
9.160217e+002,7.203110e-002
9.179502e+002,7.123993e-002
9.198787e+002,7.048476e-002
9.218071e+002,6.884633e-002
9.237356e+002,6.725734e-002
9.256641e+002,6.644303e-002
9.275925e+002,6.528869e-002
9.295210e+002,6.444163e-002
9.314495e+002,6.373483e-002
9.333779e+002,6.286589e-002
9.353064e+002,6.198187e-002
9.372349e+002,6.136106e-002
9.391633e+002,6.063372e-002
9.410918e+002,5.947775e-002
9.430203e+002,5.826578e-002
9.449487e+002,5.736826e-002
9.468772e+002,5.671712e-002
9.488057e+002,5.562627e-002
9.507341e+002,5.419688e-002
9.526626e+002,5.346145e-002
9.545911e+002,5.334788e-002
9.565195e+002,5.343264e-002
9.584480e+002,5.311274e-002
9.603765e+002,5.238779e-002
9.623049e+002,5.208861e-002
9.642334e+002,5.167949e-002
9.661619e+002,5.072505e-002
9.680903e+002,5.006597e-002
9.700188e+002,5.008333e-002
9.719473e+002,4.999269e-002
9.738757e+002,4.927377e-002
9.758042e+002,4.844715e-002
9.777327e+002,4.790039e-002
9.796611e+002,4.759143e-002
9.815896e+002,4.752296e-002
9.835181e+002,4.735284e-002
9.854465e+002,4.691596e-002
9.873750e+002,4.657416e-002
9.893035e+002,4.649904e-002
9.912319e+002,4.639686e-002
9.931604e+002,4.622751e-002
9.950889e+002,4.555034e-002
9.970173e+002,4.494904e-002
9.989458e+002,4.490314e-002
1.000874e+003,4.485193e-002
1.002803e+003,4.446762e-002
1.004731e+003,4.429095e-002
1.006660e+003,4.390751e-002
1.008588e+003,4.351925e-002
1.010517e+003,4.325664e-002
1.012445e+003,4.346761e-002
1.014374e+003,4.384425e-002
1.016302e+003,4.370854e-002
1.018230e+003,4.396390e-002
1.020159e+003,4.420852e-002
1.022087e+003,4.438097e-002
1.024016e+003,4.393215e-002
1.025944e+003,4.316514e-002
1.027873e+003,4.377226e-002
1.029801e+003,4.303063e-002
1.031730e+003,4.135075e-002
1.033658e+003,4.040475e-002
1.035587e+003,3.935374e-002
1.037515e+003,3.824773e-002
1.039444e+003,3.774722e-002
1.041372e+003,3.720683e-002
1.043301e+003,3.603213e-002
1.045229e+003,3.514998e-002
1.047157e+003,3.378939e-002
1.049086e+003,3.330272e-002
1.051014e+003,3.315754e-002
1.052943e+003,3.259924e-002
1.054871e+003,3.236583e-002
1.056800e+003,3.203999e-002
1.058728e+003,3.192051e-002
1.060657e+003,3.227805e-002
1.062585e+003,3.241773e-002
1.064514e+003,3.223812e-002
1.066442e+003,3.223573e-002
1.068371e+003,3.213810e-002
1.070299e+003,3.190257e-002
1.072228e+003,3.172556e-002
1.074156e+003,3.122358e-002
1.076084e+003,3.168429e-002
1.078013e+003,3.180349e-002
1.079941e+003,3.139572e-002
1.081870e+003,3.118530e-002
1.083798e+003,2.998931e-002
1.085727e+003,2.991121e-002
1.087655e+003,2.998529e-002
1.089584e+003,2.930673e-002
1.091512e+003,2.896976e-002
1.093441e+003,2.902962e-002
1.095369e+003,2.890672e-002
1.097298e+003,2.913113e-002
1.099226e+003,2.890187e-002
1.101155e+003,2.854705e-002
1.103083e+003,2.788879e-002
1.105011e+003,2.754582e-002
1.106940e+003,2.750882e-002
1.108868e+003,2.801303e-002
1.110797e+003,2.839146e-002
1.112725e+003,2.787967e-002
1.114654e+003,2.799172e-002
1.116582e+003,2.783357e-002
1.118511e+003,2.770673e-002
1.120439e+003,2.823203e-002
1.122368e+003,2.877365e-002
1.124296e+003,2.871676e-002
1.126225e+003,2.869931e-002
1.128153e+003,2.901630e-002
1.130082e+003,2.917156e-002
1.132010e+003,2.933598e-002
1.133938e+003,2.954816e-002
1.135867e+003,2.942354e-002
1.137795e+003,2.925417e-002
1.139724e+003,2.967288e-002
1.141652e+003,2.954887e-002
1.143581e+003,2.932995e-002
1.145509e+003,2.967015e-002
1.147438e+003,3.000826e-002
1.149366e+003,2.976761e-002
1.151295e+003,2.985392e-002
1.153223e+003,2.978997e-002
1.155152e+003,2.928724e-002
1.157080e+003,2.946950e-002
1.159009e+003,2.955220e-002
1.160937e+003,2.927210e-002
1.162865e+003,2.938376e-002
1.164794e+003,2.982375e-002
1.166722e+003,2.983933e-002
1.168651e+003,2.982020e-002
1.170579e+003,2.987401e-002
1.172508e+003,2.965294e-002
1.174436e+003,2.952145e-002
1.176365e+003,2.940323e-002
1.178293e+003,2.944351e-002
1.180222e+003,2.964882e-002
1.182150e+003,2.955919e-002
1.184079e+003,2.979061e-002
1.186007e+003,2.989026e-002
1.187936e+003,3.033112e-002
1.189864e+003,3.079014e-002
1.191792e+003,3.082329e-002
1.193721e+003,3.076645e-002
1.195649e+003,3.097367e-002
1.197578e+003,3.130394e-002
1.199506e+003,3.150084e-002
1.201435e+003,3.139658e-002
1.203363e+003,3.145072e-002
1.205292e+003,3.173208e-002
1.207220e+003,3.178288e-002
1.209149e+003,3.181308e-002
1.211077e+003,3.169377e-002
1.213006e+003,3.142945e-002
1.214934e+003,3.119075e-002
1.216863e+003,3.152108e-002
1.218791e+003,3.169644e-002
1.220719e+003,3.184545e-002
1.222648e+003,3.176010e-002
1.224576e+003,3.184103e-002
1.226505e+003,3.202373e-002
1.228433e+003,3.192094e-002
1.230362e+003,3.156120e-002
1.232290e+003,3.144655e-002
1.234219e+003,3.168297e-002
1.236147e+003,3.166230e-002
1.238076e+003,3.147640e-002
1.240004e+003,3.161244e-002
1.241933e+003,3.196705e-002
1.243861e+003,3.178042e-002
1.245790e+003,3.142696e-002
1.247718e+003,3.145891e-002
1.249646e+003,3.145146e-002
1.251575e+003,3.105901e-002
1.253503e+003,3.060735e-002
1.255432e+003,3.020049e-002
1.257360e+003,2.971038e-002
1.259289e+003,2.924013e-002
1.261217e+003,2.857466e-002
1.263146e+003,2.811762e-002
1.265074e+003,2.843805e-002
1.267003e+003,2.914983e-002
1.268931e+003,3.004413e-002
1.270860e+003,3.056576e-002
1.272788e+003,3.075834e-002
1.274717e+003,3.100680e-002
1.276645e+003,3.103933e-002
1.278573e+003,3.119022e-002
1.280502e+003,3.147405e-002
1.282430e+003,3.146529e-002
1.284359e+003,3.142461e-002
1.286287e+003,3.127798e-002
1.288216e+003,3.126410e-002
1.290144e+003,3.148663e-002
1.292073e+003,3.162847e-002
1.294001e+003,3.153540e-002
1.295930e+003,3.149322e-002
1.297858e+003,3.170068e-002
1.299787e+003,3.179985e-002
1.301715e+003,3.172517e-002
1.303644e+003,3.173333e-002
1.305572e+003,3.148267e-002
1.307500e+003,3.140854e-002
1.309429e+003,3.160816e-002
1.311357e+003,3.171451e-002
1.313286e+003,3.175500e-002
1.315214e+003,3.184531e-002
1.317143e+003,3.162648e-002
1.319071e+003,3.140755e-002
1.321000e+003,3.144815e-002
1.322928e+003,3.175704e-002
1.324857e+003,3.189441e-002
1.326785e+003,3.171448e-002
1.328714e+003,3.142432e-002
1.330642e+003,3.137153e-002
1.332571e+003,3.175943e-002
1.334499e+003,3.212069e-002
1.336427e+003,3.222121e-002
1.338356e+003,3.189715e-002
1.340284e+003,3.188567e-002
1.342213e+003,3.197069e-002
1.344141e+003,3.203589e-002
1.346070e+003,3.230500e-002
1.347998e+003,3.244580e-002
1.349927e+003,3.246726e-002
1.351855e+003,3.237068e-002
1.353784e+003,3.207224e-002
1.355712e+003,3.182124e-002
1.357641e+003,3.171861e-002
1.359569e+003,3.183244e-002
1.361498e+003,3.203721e-002
1.363426e+003,3.195621e-002
1.365354e+003,3.182531e-002
1.367283e+003,3.178584e-002
1.369211e+003,3.155001e-002
1.371140e+003,3.141837e-002
1.373068e+003,3.154677e-002
1.374997e+003,3.172167e-002
1.376925e+003,3.161864e-002
1.378854e+003,3.158788e-002
1.380782e+003,3.178991e-002
1.382711e+003,3.188721e-002
1.384639e+003,3.197005e-002
1.386568e+003,3.201920e-002
1.388496e+003,3.229472e-002
1.390425e+003,3.280852e-002
1.392353e+003,3.312299e-002
1.394281e+003,3.303364e-002
1.396210e+003,3.294662e-002
1.398138e+003,3.297168e-002
1.400067e+003,3.305420e-002
1.401995e+003,3.312017e-002
1.403924e+003,3.312185e-002
1.405852e+003,3.314484e-002
1.407781e+003,3.305023e-002
1.409709e+003,3.281499e-002
1.411638e+003,3.276872e-002
1.413566e+003,3.285055e-002
1.415495e+003,3.303964e-002
1.417423e+003,3.326073e-002
1.419352e+003,3.343955e-002
1.421280e+003,3.357914e-002
1.423208e+003,3.374878e-002
1.425137e+003,3.403350e-002
1.427065e+003,3.423053e-002
1.428994e+003,3.422515e-002
1.430922e+003,3.412618e-002
1.432851e+003,3.410600e-002
1.434779e+003,3.390476e-002
1.436708e+003,3.380382e-002
1.438636e+003,3.413277e-002
1.440565e+003,3.418658e-002
1.442493e+003,3.410579e-002
1.444422e+003,3.412829e-002
1.446350e+003,3.397731e-002
1.448279e+003,3.379745e-002
1.450207e+003,3.351431e-002
1.452135e+003,3.295306e-002
1.454064e+003,3.253282e-002
1.455992e+003,3.238860e-002
1.457921e+003,3.256717e-002
1.459849e+003,3.289794e-002
1.461778e+003,3.324288e-002
1.463706e+003,3.344799e-002
1.465635e+003,3.360434e-002
1.467563e+003,3.366144e-002
1.469492e+003,3.404232e-002
1.471420e+003,3.454707e-002
1.473349e+003,3.502975e-002
1.475277e+003,3.515220e-002
1.477206e+003,3.527344e-002
1.479134e+003,3.565973e-002
1.481063e+003,3.583101e-002
1.482991e+003,3.615408e-002
1.484919e+003,3.631587e-002
1.486848e+003,3.650493e-002
1.488776e+003,3.689376e-002
1.490705e+003,3.709523e-002
1.492633e+003,3.698604e-002
1.494562e+003,3.689643e-002
1.496490e+003,3.706336e-002
1.498419e+003,3.703190e-002
1.500347e+003,3.657673e-002
1.502276e+003,3.641772e-002
1.504204e+003,3.665568e-002
1.506133e+003,3.667792e-002
1.508061e+003,3.652281e-002
1.509990e+003,3.700797e-002
1.511918e+003,3.736099e-002
1.513846e+003,3.756293e-002
1.515775e+003,3.800087e-002
1.517703e+003,3.836397e-002
1.519632e+003,3.889127e-002
1.521560e+003,3.934801e-002
1.523489e+003,3.945438e-002
1.525417e+003,3.951012e-002
1.527346e+003,3.951088e-002
1.529274e+003,3.941999e-002
1.531203e+003,3.950606e-002
1.533131e+003,3.964183e-002
1.535060e+003,3.937547e-002
1.536988e+003,3.931663e-002
1.538917e+003,3.957330e-002
1.540845e+003,4.005899e-002
1.542773e+003,4.087123e-002
1.544702e+003,4.153979e-002
1.546630e+003,4.183390e-002
1.548559e+003,4.232950e-002
1.550487e+003,4.287221e-002
1.552416e+003,4.359467e-002
1.554344e+003,4.434273e-002
1.556273e+003,4.503044e-002
1.558201e+003,4.571309e-002
1.560130e+003,4.656026e-002
1.562058e+003,4.768693e-002
1.563987e+003,4.852233e-002
1.565915e+003,4.926182e-002
1.567844e+003,5.030438e-002
1.569772e+003,5.109384e-002
1.571700e+003,5.178285e-002
1.573629e+003,5.263709e-002
1.575557e+003,5.371482e-002
1.577486e+003,5.499924e-002
1.579414e+003,5.641838e-002
1.581343e+003,5.786803e-002
1.583271e+003,5.949398e-002
1.585200e+003,6.111254e-002
1.587128e+003,6.261544e-002
1.589057e+003,6.390012e-002
1.590985e+003,6.569573e-002
1.592914e+003,6.812446e-002
1.594842e+003,7.042066e-002
1.596771e+003,7.272314e-002
1.598699e+003,7.473322e-002
1.600627e+003,7.699841e-002
1.602556e+003,8.000693e-002
1.604484e+003,8.305964e-002
1.606413e+003,8.627174e-002
1.608341e+003,8.949715e-002
1.610270e+003,9.258858e-002
1.612198e+003,9.554134e-002
1.614127e+003,9.867762e-002
1.616055e+003,1.019963e-001
1.617984e+003,1.048438e-001
1.619912e+003,1.074225e-001
1.621841e+003,1.101726e-001
1.623769e+003,1.131259e-001
1.625698e+003,1.154071e-001
1.627626e+003,1.175986e-001
1.629554e+003,1.194641e-001
1.631483e+003,1.203048e-001
1.633411e+003,1.211156e-001
1.635340e+003,1.218792e-001
1.637268e+003,1.222799e-001
1.639197e+003,1.219962e-001
1.641125e+003,1.210695e-001
1.643054e+003,1.198648e-001
1.644982e+003,1.184130e-001
1.646911e+003,1.168995e-001
1.648839e+003,1.152851e-001
1.650768e+003,1.132859e-001
1.652696e+003,1.109288e-001
1.654625e+003,1.084058e-001
1.656553e+003,1.058397e-001
1.658481e+003,1.032783e-001
1.660410e+003,1.006093e-001
1.662338e+003,9.802537e-002
1.664267e+003,9.542595e-002
1.666195e+003,9.266105e-002
1.668124e+003,8.977191e-002
1.670052e+003,8.707517e-002
1.671981e+003,8.434542e-002
1.673909e+003,8.173533e-002
1.675838e+003,7.879501e-002
1.677766e+003,7.587536e-002
1.679695e+003,7.334700e-002
1.681623e+003,7.065678e-002
1.683552e+003,6.790587e-002
1.685480e+003,6.531504e-002
1.687408e+003,6.288282e-002
1.689337e+003,6.011068e-002
1.691265e+003,5.739719e-002
1.693194e+003,5.480846e-002
1.695122e+003,5.234559e-002
1.697051e+003,5.027513e-002
1.698979e+003,4.797103e-002
1.700908e+003,4.544434e-002
1.702836e+003,4.320068e-002
1.704765e+003,4.096735e-002
1.706693e+003,3.900294e-002
1.708622e+003,3.739902e-002
1.710550e+003,3.559002e-002
1.712479e+003,3.396574e-002
1.714407e+003,3.267261e-002
1.716335e+003,3.151445e-002
1.718264e+003,3.020849e-002
1.720192e+003,2.881334e-002
1.722121e+003,2.768148e-002
1.724049e+003,2.630476e-002
1.725978e+003,2.501870e-002
1.727906e+003,2.402930e-002
1.729835e+003,2.294360e-002
1.731763e+003,2.190427e-002
1.733692e+003,2.061301e-002
1.735620e+003,1.931554e-002
1.737549e+003,1.826715e-002
1.739477e+003,1.710026e-002
1.741406e+003,1.603578e-002
1.743334e+003,1.523690e-002
1.745262e+003,1.484555e-002
1.747191e+003,1.440831e-002
1.749119e+003,1.385372e-002
1.751048e+003,1.370573e-002
1.752976e+003,1.389563e-002
1.754905e+003,1.432577e-002
1.756833e+003,1.442479e-002
1.758762e+003,1.432684e-002
1.760690e+003,1.444739e-002
1.762619e+003,1.429971e-002
1.764547e+003,1.418522e-002
1.766476e+003,1.407503e-002
1.768404e+003,1.385793e-002
1.770333e+003,1.361532e-002
1.772261e+003,1.356195e-002
1.774189e+003,1.341512e-002
1.776118e+003,1.314643e-002
1.778046e+003,1.280961e-002
1.779975e+003,1.270121e-002
1.781903e+003,1.259235e-002
1.783832e+003,1.247425e-002
1.785760e+003,1.216211e-002
1.787689e+003,1.184434e-002
1.789617e+003,1.171953e-002
1.791546e+003,1.175834e-002
1.793474e+003,1.181751e-002
1.795403e+003,1.154406e-002
1.797331e+003,1.126040e-002
1.799260e+003,1.126948e-002
1.801188e+003,1.108276e-002
1.803116e+003,1.087822e-002
1.805045e+003,1.077536e-002
1.806973e+003,1.078603e-002
1.808902e+003,1.057861e-002
1.810830e+003,1.039585e-002
1.812759e+003,1.034295e-002
1.814687e+003,1.032316e-002
1.816616e+003,1.019757e-002
1.818544e+003,1.006903e-002
1.820473e+003,1.005211e-002
1.822401e+003,9.962085e-003
1.824330e+003,9.859168e-003
1.826258e+003,9.778133e-003
1.828187e+003,9.799551e-003
1.830115e+003,9.717511e-003
1.832043e+003,9.712022e-003
1.833972e+003,9.621800e-003
1.835900e+003,9.490718e-003
1.837829e+003,9.483640e-003
1.839757e+003,9.419910e-003
1.841686e+003,9.300737e-003
1.843614e+003,9.305442e-003
1.845543e+003,9.419537e-003
1.847471e+003,9.308556e-003
1.849400e+003,9.296945e-003
1.851328e+003,9.215711e-003
1.853257e+003,9.261370e-003
1.855185e+003,9.300229e-003
1.857114e+003,9.234698e-003
1.859042e+003,9.221058e-003
1.860970e+003,9.234224e-003
1.862899e+003,9.182375e-003
1.864827e+003,8.964013e-003
1.866756e+003,8.889639e-003
1.868684e+003,8.905973e-003
1.870613e+003,8.756242e-003
1.872541e+003,8.811422e-003
1.874470e+003,8.919840e-003
1.876398e+003,8.938307e-003
1.878327e+003,8.994085e-003
1.880255e+003,8.917912e-003
1.882183e+003,8.758710e-003
1.884112e+003,8.778083e-003
1.886040e+003,8.909356e-003
1.887969e+003,9.035288e-003
1.889897e+003,9.193543e-003
1.891826e+003,9.169482e-003
1.893754e+003,9.076091e-003
1.895683e+003,8.876720e-003
1.897611e+003,8.834923e-003
1.899540e+003,9.041310e-003
1.901468e+003,9.199567e-003
1.903397e+003,9.192156e-003
1.905325e+003,9.091146e-003
1.907254e+003,9.157366e-003
1.909182e+003,9.264518e-003
1.911110e+003,9.308015e-003
1.913039e+003,9.185827e-003
1.914967e+003,9.067125e-003
1.916896e+003,9.239132e-003
1.918824e+003,9.398375e-003
1.920753e+003,9.452282e-003
1.922681e+003,9.410530e-003
1.924610e+003,9.350975e-003
1.926538e+003,9.340852e-003
1.928467e+003,9.468028e-003
1.930395e+003,9.632844e-003
1.932324e+003,9.594970e-003
1.934252e+003,9.677496e-003
1.936181e+003,9.742721e-003
1.938109e+003,9.702365e-003
1.940037e+003,9.650934e-003
1.941966e+003,9.628845e-003
1.943894e+003,9.717578e-003
1.945823e+003,9.972832e-003
1.947751e+003,1.006438e-002
1.949680e+003,1.013299e-002
1.951608e+003,1.025561e-002
1.953537e+003,1.030576e-002
1.955465e+003,1.024588e-002
1.957394e+003,1.026287e-002
1.959322e+003,1.049136e-002
1.961251e+003,1.068940e-002
1.963179e+003,1.066054e-002
1.965108e+003,1.056703e-002
1.967036e+003,1.066094e-002
1.968964e+003,1.096477e-002
1.970893e+003,1.111247e-002
1.972821e+003,1.119927e-002
1.974750e+003,1.121106e-002
1.976678e+003,1.127927e-002
1.978607e+003,1.145315e-002
1.980535e+003,1.149979e-002
1.982464e+003,1.160425e-002
1.984392e+003,1.166640e-002
1.986321e+003,1.175150e-002
1.988249e+003,1.189549e-002
1.990178e+003,1.182483e-002
1.992106e+003,1.190148e-002
1.994035e+003,1.207468e-002
1.995963e+003,1.222529e-002
1.997891e+003,1.236470e-002
1.999820e+003,1.260187e-002
2.001748e+003,1.270800e-002
2.003677e+003,1.278033e-002
2.005605e+003,1.277996e-002
2.007534e+003,1.288736e-002
2.009462e+003,1.295805e-002
2.011391e+003,1.302725e-002
2.013319e+003,1.329447e-002
2.015248e+003,1.360018e-002
2.017176e+003,1.363563e-002
2.019105e+003,1.371896e-002
2.021033e+003,1.400149e-002
2.022962e+003,1.404858e-002
2.024890e+003,1.414126e-002
2.026818e+003,1.455339e-002
2.028747e+003,1.487545e-002
2.030675e+003,1.494259e-002
2.032604e+003,1.493738e-002
2.034532e+003,1.492541e-002
2.036461e+003,1.517493e-002
2.038389e+003,1.555019e-002
2.040318e+003,1.573035e-002
2.042246e+003,1.591890e-002
2.044175e+003,1.582030e-002
2.046103e+003,1.567044e-002
2.048032e+003,1.577790e-002
2.049960e+003,1.588429e-002
2.051889e+003,1.585505e-002
2.053817e+003,1.598576e-002
2.055746e+003,1.628487e-002
2.057674e+003,1.632292e-002
2.059603e+003,1.599669e-002
2.061531e+003,1.578117e-002
2.063459e+003,1.565677e-002
2.065388e+003,1.577794e-002
2.067316e+003,1.583501e-002
2.069245e+003,1.595145e-002
2.071173e+003,1.602117e-002
2.073102e+003,1.587625e-002
2.075030e+003,1.605902e-002
2.076959e+003,1.597280e-002
2.078887e+003,1.572997e-002
2.080816e+003,1.590106e-002
2.082744e+003,1.607003e-002
2.084673e+003,1.617095e-002
2.086601e+003,1.629484e-002
2.088530e+003,1.634642e-002
2.090458e+003,1.629378e-002
2.092386e+003,1.618522e-002
2.094315e+003,1.609437e-002
2.096243e+003,1.610410e-002
2.098172e+003,1.624201e-002
2.100100e+003,1.646747e-002
2.102029e+003,1.647225e-002
2.103957e+003,1.635794e-002
2.105886e+003,1.633675e-002
2.107814e+003,1.640419e-002
2.109743e+003,1.636585e-002
2.111671e+003,1.625157e-002
2.113600e+003,1.625130e-002
2.115528e+003,1.633668e-002
2.117457e+003,1.647831e-002
2.119385e+003,1.662470e-002
2.121313e+003,1.650216e-002
2.123242e+003,1.633038e-002
2.125170e+003,1.636276e-002
2.127099e+003,1.645976e-002
2.129027e+003,1.632804e-002
2.130956e+003,1.648798e-002
2.132884e+003,1.653682e-002
2.134813e+003,1.664880e-002
2.136741e+003,1.673998e-002
2.138670e+003,1.649393e-002
2.140598e+003,1.631679e-002
2.142527e+003,1.630620e-002
2.144455e+003,1.639576e-002
2.146384e+003,1.629725e-002
2.148312e+003,1.614591e-002
2.150240e+003,1.607391e-002
2.152169e+003,1.596727e-002
2.154097e+003,1.590179e-002
2.156026e+003,1.599803e-002
2.157954e+003,1.603375e-002
2.159883e+003,1.598363e-002
2.161811e+003,1.583975e-002
2.163740e+003,1.581384e-002
2.165668e+003,1.577227e-002
2.167597e+003,1.563839e-002
2.169525e+003,1.565587e-002
2.171454e+003,1.574598e-002
2.173382e+003,1.584378e-002
2.175311e+003,1.572180e-002
2.177239e+003,1.549106e-002
2.179167e+003,1.518865e-002
2.181096e+003,1.511313e-002
2.183024e+003,1.530849e-002
2.184953e+003,1.538723e-002
2.186881e+003,1.516422e-002
2.188810e+003,1.489561e-002
2.190738e+003,1.486022e-002
2.192667e+003,1.475494e-002
2.194595e+003,1.471240e-002
2.196524e+003,1.480263e-002
2.198452e+003,1.465205e-002
2.200381e+003,1.446706e-002
2.202309e+003,1.432906e-002
2.204238e+003,1.429752e-002
2.206166e+003,1.421932e-002
2.208094e+003,1.404954e-002
2.210023e+003,1.407613e-002
2.211951e+003,1.408123e-002
2.213880e+003,1.392238e-002
2.215808e+003,1.376728e-002
2.217737e+003,1.373230e-002
2.219665e+003,1.370029e-002
2.221594e+003,1.342517e-002
2.223522e+003,1.326157e-002
2.225451e+003,1.345938e-002
2.227379e+003,1.347336e-002
2.229308e+003,1.320606e-002
2.231236e+003,1.296245e-002
2.233165e+003,1.280156e-002
2.235093e+003,1.271844e-002
2.237021e+003,1.274877e-002
2.238950e+003,1.278497e-002
2.240878e+003,1.271438e-002
2.242807e+003,1.230072e-002
2.244735e+003,1.208300e-002
2.246664e+003,1.213666e-002
2.248592e+003,1.202406e-002
2.250521e+003,1.200516e-002
2.252449e+003,1.206726e-002
2.254378e+003,1.196108e-002
2.256306e+003,1.195311e-002
2.258235e+003,1.177594e-002
2.260163e+003,1.175725e-002
2.262092e+003,1.166674e-002
2.264020e+003,1.136103e-002
2.265948e+003,1.126217e-002
2.267877e+003,1.104674e-002
2.269805e+003,1.085645e-002
2.271734e+003,1.094227e-002
2.273662e+003,1.100871e-002
2.275591e+003,1.081769e-002
2.277519e+003,1.059018e-002
2.279448e+003,1.050871e-002
2.281376e+003,1.048539e-002
2.283305e+003,1.046363e-002
2.285233e+003,1.045491e-002
2.287162e+003,1.029405e-002
2.289090e+003,1.013058e-002
2.291019e+003,1.010877e-002
2.292947e+003,9.994056e-003
2.294875e+003,9.842289e-003
2.296804e+003,9.794603e-003
2.298732e+003,9.851948e-003
2.300661e+003,9.626068e-003
2.302589e+003,9.392348e-003
2.304518e+003,9.279919e-003
2.306446e+003,9.082587e-003
2.308375e+003,9.166470e-003
2.310303e+003,9.534170e-003
2.312232e+003,9.331441e-003
2.314160e+003,9.063843e-003
2.316089e+003,8.833299e-003
2.318017e+003,8.740927e-003
2.319946e+003,8.779266e-003
2.321874e+003,8.549348e-003
2.323802e+003,8.479976e-003
2.325731e+003,8.433319e-003
2.327659e+003,8.505994e-003
2.329588e+003,8.431764e-003
2.331516e+003,8.176806e-003
2.333445e+003,8.196559e-003
2.335373e+003,8.360148e-003
2.337302e+003,8.270511e-003
2.339230e+003,8.165969e-003
2.341159e+003,8.090818e-003
2.343087e+003,7.944101e-003
2.345016e+003,8.055139e-003
2.346944e+003,8.009269e-003
2.348873e+003,7.903507e-003
2.350801e+003,7.930569e-003
2.352729e+003,7.971200e-003
2.354658e+003,7.995061e-003
2.356586e+003,8.115732e-003
2.358515e+003,7.889943e-003
2.360443e+003,7.730881e-003
2.362372e+003,7.660662e-003
2.364300e+003,7.747746e-003
2.366229e+003,7.757899e-003
2.368157e+003,7.591332e-003
2.370086e+003,7.427795e-003
2.372014e+003,7.416335e-003
2.373943e+003,7.488638e-003
2.375871e+003,7.608529e-003
2.377800e+003,7.417886e-003
2.379728e+003,7.328240e-003
2.381656e+003,7.401809e-003
2.383585e+003,7.351459e-003
2.385513e+003,7.317558e-003
2.387442e+003,7.170226e-003
2.389370e+003,7.168441e-003
2.391299e+003,7.280493e-003
2.393227e+003,7.168609e-003
2.395156e+003,7.033282e-003
2.397084e+003,7.040623e-003
2.399013e+003,6.814113e-003
2.400941e+003,6.938699e-003
2.402870e+003,7.017084e-003
2.404798e+003,6.885979e-003
2.406727e+003,7.079419e-003
2.408655e+003,7.105689e-003
2.410583e+003,6.925434e-003
2.412512e+003,6.886989e-003
2.414440e+003,6.771437e-003
2.416369e+003,6.694778e-003
2.418297e+003,6.714362e-003
2.420226e+003,6.546278e-003
2.422154e+003,6.660659e-003
2.424083e+003,6.936073e-003
2.426011e+003,6.976611e-003
2.427940e+003,6.792707e-003
2.429868e+003,6.746971e-003
2.431797e+003,6.747643e-003
2.433725e+003,6.847570e-003
2.435654e+003,7.017152e-003
2.437582e+003,6.778101e-003
2.439510e+003,6.581094e-003
2.441439e+003,6.565889e-003
2.443367e+003,6.536624e-003
2.445296e+003,6.456240e-003
2.447224e+003,6.561751e-003
2.449153e+003,6.541669e-003
2.451081e+003,6.385420e-003
2.453010e+003,6.599058e-003
2.454938e+003,6.706320e-003
2.456867e+003,6.704402e-003
2.458795e+003,6.583852e-003
2.460724e+003,6.301568e-003
2.462652e+003,6.520782e-003
2.464581e+003,6.629976e-003
2.466509e+003,6.598149e-003
2.468438e+003,6.570295e-003
2.470366e+003,6.559968e-003
2.472294e+003,6.649354e-003
2.474223e+003,6.446084e-003
2.476151e+003,6.196087e-003
2.478080e+003,6.295383e-003
2.480008e+003,6.403276e-003
2.481937e+003,6.325270e-003
2.483865e+003,6.184794e-003
2.485794e+003,5.995850e-003
2.487722e+003,6.143826e-003
2.489651e+003,6.421535e-003
2.491579e+003,6.635089e-003
2.493508e+003,6.741182e-003
2.495436e+003,6.941426e-003
2.497365e+003,6.860429e-003
2.499293e+003,6.716886e-003
2.501221e+003,6.674320e-003
2.503150e+003,6.620151e-003
2.505078e+003,6.617965e-003
2.507007e+003,6.653089e-003
2.508935e+003,6.558724e-003
2.510864e+003,6.517115e-003
2.512792e+003,6.692120e-003
2.514721e+003,6.904932e-003
2.516649e+003,6.633844e-003
2.518578e+003,6.162478e-003
2.520506e+003,6.026758e-003
2.522435e+003,6.207615e-003
2.524363e+003,6.269363e-003
2.526292e+003,6.286003e-003
2.528220e+003,6.312158e-003
2.530148e+003,6.407479e-003
2.532077e+003,6.263682e-003
2.534005e+003,6.017250e-003
2.535934e+003,6.033108e-003
2.537862e+003,5.924064e-003
2.539791e+003,5.669063e-003
2.541719e+003,5.787680e-003
2.543648e+003,5.926080e-003
2.545576e+003,5.944856e-003
2.547505e+003,5.925744e-003
2.549433e+003,5.912174e-003
2.551362e+003,5.872407e-003
2.553290e+003,5.613174e-003
2.555219e+003,5.826902e-003
2.557147e+003,6.093151e-003
2.559075e+003,5.934678e-003
2.561004e+003,5.647110e-003
2.562932e+003,5.566488e-003
2.564861e+003,5.695953e-003
2.566789e+003,5.805947e-003
2.568718e+003,5.625627e-003
2.570646e+003,5.570549e-003
2.572575e+003,5.555211e-003
2.574503e+003,5.512893e-003
2.576432e+003,5.493766e-003
2.578360e+003,5.580751e-003
2.580289e+003,5.683364e-003
2.582217e+003,5.596191e-003
2.584146e+003,5.526686e-003
2.586074e+003,5.406597e-003
2.588002e+003,5.506450e-003
2.589931e+003,5.589377e-003
2.591859e+003,5.471183e-003
2.593788e+003,5.377980e-003
2.595716e+003,5.285300e-003
2.597645e+003,5.248944e-003
2.599573e+003,5.508631e-003
2.601502e+003,5.620491e-003
2.603430e+003,5.589041e-003
2.605359e+003,5.376772e-003
2.607287e+003,5.138957e-003
2.609216e+003,5.120718e-003
2.611144e+003,5.211754e-003
2.613073e+003,5.269738e-003
2.615001e+003,5.206958e-003
2.616929e+003,4.922082e-003
2.618858e+003,4.844912e-003
2.620786e+003,4.890147e-003
2.622715e+003,5.009255e-003
2.624643e+003,5.224631e-003
2.626572e+003,5.128932e-003
2.628500e+003,4.899496e-003
2.630429e+003,4.819515e-003
2.632357e+003,4.707359e-003
2.634286e+003,4.528163e-003
2.636214e+003,4.533286e-003
2.638143e+003,4.507004e-003
2.640071e+003,4.434895e-003
2.642000e+003,4.454846e-003
2.643928e+003,4.522572e-003
2.645856e+003,4.682975e-003
2.647785e+003,4.715331e-003
2.649713e+003,4.645498e-003
2.651642e+003,4.670348e-003
2.653570e+003,4.703775e-003
2.655499e+003,4.793584e-003
2.657427e+003,5.039624e-003
2.659356e+003,5.096714e-003
2.661284e+003,4.922451e-003
2.663213e+003,4.691650e-003
2.665141e+003,4.615894e-003
2.667070e+003,4.947117e-003
2.668998e+003,5.094937e-003
2.670927e+003,5.009557e-003
2.672855e+003,4.947720e-003
2.674783e+003,5.193377e-003
2.676712e+003,5.226375e-003
2.678640e+003,5.095205e-003
2.680569e+003,4.911593e-003
2.682497e+003,4.993937e-003
2.684426e+003,5.108146e-003
2.686354e+003,5.101340e-003
2.688283e+003,5.157432e-003
2.690211e+003,5.184424e-003
2.692140e+003,5.305022e-003
2.694068e+003,5.352921e-003
2.695997e+003,5.167558e-003
2.697925e+003,5.204645e-003
2.699854e+003,5.287882e-003
2.701782e+003,5.498867e-003
2.703710e+003,5.680746e-003
2.705639e+003,5.697095e-003
2.707567e+003,5.878218e-003
2.709496e+003,5.944050e-003
2.711424e+003,5.632642e-003
2.713353e+003,5.531786e-003
2.715281e+003,5.764210e-003
2.717210e+003,6.162041e-003
2.719138e+003,6.329977e-003
2.721067e+003,6.418610e-003
2.722995e+003,6.302140e-003
2.724924e+003,6.297568e-003
2.726852e+003,6.367835e-003
2.728781e+003,6.688553e-003
2.730709e+003,6.624626e-003
2.732637e+003,6.704334e-003
2.734566e+003,7.152744e-003
2.736494e+003,7.412493e-003
2.738423e+003,7.361569e-003
2.740351e+003,7.260715e-003
2.742280e+003,7.533374e-003
2.744208e+003,7.715838e-003
2.746137e+003,7.488908e-003
2.748065e+003,7.643734e-003
2.749994e+003,8.157933e-003
2.751922e+003,8.504203e-003
2.753851e+003,8.919400e-003
2.755779e+003,8.994491e-003
2.757708e+003,8.716349e-003
2.759636e+003,8.754180e-003
2.761564e+003,9.182747e-003
2.763493e+003,9.321352e-003
2.765421e+003,9.460375e-003
2.767350e+003,9.671363e-003
2.769278e+003,9.882149e-003
2.771207e+003,1.035896e-002
2.773135e+003,1.044883e-002
2.775064e+003,1.036500e-002
2.776992e+003,1.064006e-002
2.778921e+003,1.100901e-002
2.780849e+003,1.141773e-002
2.782778e+003,1.152306e-002
2.784706e+003,1.134855e-002
2.786635e+003,1.154627e-002
2.788563e+003,1.194218e-002
2.790491e+003,1.215462e-002
2.792420e+003,1.216344e-002
2.794348e+003,1.229015e-002
2.796277e+003,1.239071e-002
2.798205e+003,1.275078e-002
2.800134e+003,1.311504e-002
2.802062e+003,1.322335e-002
2.803991e+003,1.351769e-002
2.805919e+003,1.401993e-002
2.807848e+003,1.431002e-002
2.809776e+003,1.490254e-002
2.811705e+003,1.577873e-002
2.813633e+003,1.641998e-002
2.815562e+003,1.665813e-002
2.817490e+003,1.704223e-002
2.819418e+003,1.783205e-002
2.821347e+003,1.835569e-002
2.823275e+003,1.874448e-002
2.825204e+003,1.910290e-002
2.827132e+003,1.898644e-002
2.829061e+003,1.836810e-002
2.830989e+003,1.781996e-002
2.832918e+003,1.744891e-002
2.834846e+003,1.668736e-002
2.836775e+003,1.563908e-002
2.838703e+003,1.482090e-002
2.840632e+003,1.404002e-002
2.842560e+003,1.311860e-002
2.844489e+003,1.229124e-002
2.846417e+003,1.152510e-002
2.848345e+003,1.030186e-002
2.850274e+003,9.224443e-003
2.852202e+003,8.716721e-003
2.854131e+003,9.052610e-003
2.856059e+003,9.372203e-003
2.857988e+003,9.581828e-003
2.859916e+003,9.700739e-003
2.861845e+003,9.809074e-003
2.863773e+003,9.878217e-003
2.865702e+003,1.048620e-002
2.867630e+003,1.089987e-002
2.869558e+003,1.077312e-002
2.871487e+003,1.077071e-002
2.873415e+003,1.139573e-002
2.875344e+003,1.227802e-002
2.877272e+003,1.290613e-002
2.879201e+003,1.302637e-002
2.881129e+003,1.307752e-002
2.883058e+003,1.315463e-002
2.884986e+003,1.344759e-002
2.886915e+003,1.396515e-002
2.888843e+003,1.430615e-002
2.890771e+003,1.438351e-002
2.892700e+003,1.441848e-002
2.894628e+003,1.502329e-002
2.896557e+003,1.534728e-002
2.898485e+003,1.561352e-002
2.900414e+003,1.613164e-002
2.902342e+003,1.627586e-002
2.904271e+003,1.664030e-002
2.906199e+003,1.700415e-002
2.908128e+003,1.740114e-002
2.910056e+003,1.745850e-002
2.911985e+003,1.691164e-002
2.913913e+003,1.635230e-002
2.915842e+003,1.651896e-002
2.917770e+003,1.648402e-002
2.919698e+003,1.638258e-002
2.921627e+003,1.695298e-002
2.923555e+003,1.712959e-002
2.925484e+003,1.762731e-002
2.927412e+003,1.834263e-002
2.929341e+003,1.904165e-002
2.931269e+003,1.973077e-002
2.933198e+003,2.068160e-002
2.935126e+003,2.179252e-002
2.937055e+003,2.289134e-002
2.938983e+003,2.364647e-002
2.940912e+003,2.428628e-002
2.942840e+003,2.551437e-002
2.944769e+003,2.640655e-002
2.946697e+003,2.700890e-002
2.948625e+003,2.785660e-002
2.950554e+003,2.836380e-002
2.952482e+003,2.788190e-002
2.954411e+003,2.772580e-002
2.956339e+003,2.796119e-002
2.958268e+003,2.798144e-002
2.960196e+003,2.799427e-002
2.962125e+003,2.822637e-002
2.964053e+003,2.840165e-002
2.965982e+003,2.874168e-002
2.967910e+003,2.979806e-002
2.969839e+003,3.094802e-002
2.971767e+003,3.116953e-002
2.973696e+003,3.178784e-002
2.975624e+003,3.319098e-002
2.977552e+003,3.459881e-002
2.979481e+003,3.599336e-002
2.981409e+003,3.754841e-002
2.983338e+003,3.930169e-002
2.985266e+003,4.079494e-002
2.987195e+003,4.204512e-002
2.989123e+003,4.341674e-002
2.991052e+003,4.428864e-002
2.992980e+003,4.524866e-002
2.994909e+003,4.677856e-002
2.996837e+003,4.757135e-002
2.998766e+003,4.812906e-002
3.000694e+003,4.893493e-002
3.002623e+003,4.987790e-002
3.004551e+003,5.090107e-002
3.006479e+003,5.192121e-002
3.008408e+003,5.277329e-002
3.010336e+003,5.337538e-002
3.012265e+003,5.426321e-002
3.014193e+003,5.524308e-002
3.016122e+003,5.606035e-002
3.018050e+003,5.695932e-002
3.019979e+003,5.770414e-002
3.021907e+003,5.826627e-002
3.023836e+003,5.917085e-002
3.025764e+003,6.060271e-002
3.027693e+003,6.136996e-002
3.029621e+003,6.198596e-002
3.031550e+003,6.307059e-002
3.033478e+003,6.410895e-002
3.035406e+003,6.478779e-002
3.037335e+003,6.551272e-002
3.039263e+003,6.654015e-002
3.041192e+003,6.786143e-002
3.043120e+003,6.957329e-002
3.045049e+003,7.045339e-002
3.046977e+003,7.151103e-002
3.048906e+003,7.291009e-002
3.050834e+003,7.423911e-002
3.052763e+003,7.552589e-002
3.054691e+003,7.677210e-002
3.056620e+003,7.796217e-002
3.058548e+003,7.918577e-002
3.060477e+003,8.034664e-002
3.062405e+003,8.168774e-002
3.064333e+003,8.291616e-002
3.066262e+003,8.430176e-002
3.068190e+003,8.605456e-002
3.070119e+003,8.773655e-002
3.072047e+003,8.907687e-002
3.073976e+003,9.078558e-002
3.075904e+003,9.272344e-002
3.077833e+003,9.427912e-002
3.079761e+003,9.598891e-002
3.081690e+003,9.737534e-002
3.083618e+003,9.850715e-002
3.085547e+003,9.996901e-002
3.087475e+003,1.014356e-001
3.089404e+003,1.034912e-001
3.091332e+003,1.057128e-001
3.093260e+003,1.078606e-001
3.095189e+003,1.099220e-001
3.097117e+003,1.118189e-001
3.099046e+003,1.133113e-001
3.100974e+003,1.145288e-001
3.102903e+003,1.160821e-001
3.104831e+003,1.183501e-001
3.106760e+003,1.202559e-001
3.108688e+003,1.221019e-001
3.110617e+003,1.238375e-001
3.112545e+003,1.256683e-001
3.114474e+003,1.279787e-001
3.116402e+003,1.300235e-001
3.118331e+003,1.319420e-001
3.120259e+003,1.341712e-001
3.122188e+003,1.362421e-001
3.124116e+003,1.384091e-001
3.126044e+003,1.407155e-001
3.127973e+003,1.428972e-001
3.129901e+003,1.450263e-001
3.131830e+003,1.467811e-001
3.133758e+003,1.486451e-001
3.135687e+003,1.514339e-001
3.137615e+003,1.534665e-001
3.139544e+003,1.555015e-001
3.141472e+003,1.576770e-001
3.143401e+003,1.600452e-001
3.145329e+003,1.625224e-001
3.147258e+003,1.647381e-001
3.149186e+003,1.664737e-001
3.151115e+003,1.684076e-001
3.153043e+003,1.707376e-001
3.154971e+003,1.728181e-001
3.156900e+003,1.750229e-001
3.158828e+003,1.770129e-001
3.160757e+003,1.793189e-001
3.162685e+003,1.814300e-001
3.164614e+003,1.829688e-001
3.166542e+003,1.852270e-001
3.168471e+003,1.878955e-001
3.170399e+003,1.903589e-001
3.172328e+003,1.923773e-001
3.174256e+003,1.939366e-001
3.176185e+003,1.954688e-001
3.178113e+003,1.973894e-001
3.180042e+003,1.999122e-001
3.181970e+003,2.021299e-001
3.183898e+003,2.034463e-001
3.185827e+003,2.049671e-001
3.187755e+003,2.078408e-001
3.189684e+003,2.102013e-001
3.191612e+003,2.113428e-001
3.193541e+003,2.131825e-001
3.195469e+003,2.146616e-001
3.197398e+003,2.161690e-001
3.199326e+003,2.182469e-001
3.201255e+003,2.201245e-001
3.203183e+003,2.215889e-001
3.205112e+003,2.228412e-001
3.207040e+003,2.241008e-001
3.208969e+003,2.259124e-001
3.210897e+003,2.269929e-001
3.212825e+003,2.275881e-001
3.214754e+003,2.291802e-001
3.216682e+003,2.309341e-001
3.218611e+003,2.321325e-001
3.220539e+003,2.336655e-001
3.222468e+003,2.346321e-001
3.224396e+003,2.348705e-001
3.226325e+003,2.358998e-001
3.228253e+003,2.371555e-001
3.230182e+003,2.383822e-001
3.232110e+003,2.391035e-001
3.234039e+003,2.396386e-001
3.235967e+003,2.401683e-001
3.237896e+003,2.407969e-001
3.239824e+003,2.415829e-001
3.241752e+003,2.416792e-001
3.243681e+003,2.414951e-001
3.245609e+003,2.421862e-001
3.247538e+003,2.429895e-001
3.249466e+003,2.437590e-001
3.251395e+003,2.442707e-001
3.253323e+003,2.440045e-001
3.255252e+003,2.443273e-001
3.257180e+003,2.447699e-001
3.259109e+003,2.457553e-001
3.261037e+003,2.461392e-001
3.262966e+003,2.465693e-001
3.264894e+003,2.469599e-001
3.266823e+003,2.463462e-001
3.268751e+003,2.457204e-001
3.270679e+003,2.460925e-001
3.272608e+003,2.469281e-001
3.274536e+003,2.468971e-001
3.276465e+003,2.462271e-001
3.278393e+003,2.463865e-001
3.280322e+003,2.471798e-001
3.282250e+003,2.474079e-001
3.284179e+003,2.467838e-001
3.286107e+003,2.467433e-001
3.288036e+003,2.471295e-001
3.289964e+003,2.470185e-001
3.291893e+003,2.471596e-001
3.293821e+003,2.471540e-001
3.295750e+003,2.468970e-001
3.297678e+003,2.472778e-001
3.299606e+003,2.476146e-001
3.301535e+003,2.479248e-001
3.303463e+003,2.481024e-001
3.305392e+003,2.481577e-001
3.307320e+003,2.482052e-001
3.309249e+003,2.482623e-001
3.311177e+003,2.475780e-001
3.313106e+003,2.473277e-001
3.315034e+003,2.480346e-001
3.316963e+003,2.482239e-001
3.318891e+003,2.480509e-001
3.320820e+003,2.478792e-001
3.322748e+003,2.482205e-001
3.324677e+003,2.483294e-001
3.326605e+003,2.480781e-001
3.328533e+003,2.479281e-001
3.330462e+003,2.470078e-001
3.332390e+003,2.470279e-001
3.334319e+003,2.475902e-001
3.336247e+003,2.475207e-001
3.338176e+003,2.468011e-001
3.340104e+003,2.462888e-001
3.342033e+003,2.454980e-001
3.343961e+003,2.452607e-001
3.345890e+003,2.457874e-001
3.347818e+003,2.462807e-001
3.349747e+003,2.463187e-001
3.351675e+003,2.456215e-001
3.353604e+003,2.453264e-001
3.355532e+003,2.454024e-001
3.357460e+003,2.452020e-001
3.359389e+003,2.451355e-001
3.361317e+003,2.448696e-001
3.363246e+003,2.440541e-001
3.365174e+003,2.433413e-001
3.367103e+003,2.425118e-001
3.369031e+003,2.408050e-001
3.370960e+003,2.404880e-001
3.372888e+003,2.416542e-001
3.374817e+003,2.415399e-001
3.376745e+003,2.402887e-001
3.378674e+003,2.384126e-001
3.380602e+003,2.374901e-001
3.382531e+003,2.366966e-001
3.384459e+003,2.355605e-001
3.386387e+003,2.353105e-001
3.388316e+003,2.342270e-001
3.390244e+003,2.330135e-001
3.392173e+003,2.324039e-001
3.394101e+003,2.315668e-001
3.396030e+003,2.295393e-001
3.397958e+003,2.276641e-001
3.399887e+003,2.264326e-001
3.401815e+003,2.247427e-001
3.403744e+003,2.235593e-001
3.405672e+003,2.234628e-001
3.407601e+003,2.223560e-001
3.409529e+003,2.212561e-001
3.411458e+003,2.195052e-001
3.413386e+003,2.175784e-001
3.415314e+003,2.173699e-001
3.417243e+003,2.160375e-001
3.419171e+003,2.139188e-001
3.421100e+003,2.121787e-001
3.423028e+003,2.102826e-001
3.424957e+003,2.083626e-001
3.426885e+003,2.062812e-001
3.428814e+003,2.052618e-001
3.430742e+003,2.036587e-001
3.432671e+003,2.022054e-001
3.434599e+003,2.011251e-001
3.436528e+003,1.995191e-001
3.438456e+003,1.979182e-001
3.440385e+003,1.959331e-001
3.442313e+003,1.945338e-001
3.444241e+003,1.935399e-001
3.446170e+003,1.915347e-001
3.448098e+003,1.893599e-001
3.450027e+003,1.886334e-001
3.451955e+003,1.873978e-001
3.453884e+003,1.848981e-001
3.455812e+003,1.833351e-001
3.457741e+003,1.816098e-001
3.459669e+003,1.793938e-001
3.461598e+003,1.776858e-001
3.463526e+003,1.763755e-001
3.465455e+003,1.740739e-001
3.467383e+003,1.721926e-001
3.469312e+003,1.707524e-001
3.471240e+003,1.689977e-001
3.473168e+003,1.681758e-001
3.475097e+003,1.673388e-001
3.477025e+003,1.660153e-001
3.478954e+003,1.641750e-001
3.480882e+003,1.621218e-001
3.482811e+003,1.608709e-001
3.484739e+003,1.593640e-001
3.486668e+003,1.574327e-001
3.488596e+003,1.562109e-001
3.490525e+003,1.551108e-001
3.492453e+003,1.534451e-001
3.494382e+003,1.519166e-001
3.496310e+003,1.501700e-001
3.498239e+003,1.478979e-001
3.500167e+003,1.462009e-001
3.502095e+003,1.444837e-001
3.504024e+003,1.424783e-001
3.505952e+003,1.417234e-001
3.507881e+003,1.411716e-001
3.509809e+003,1.394323e-001
3.511738e+003,1.380056e-001
3.513666e+003,1.369390e-001
3.515595e+003,1.346558e-001
3.517523e+003,1.334512e-001
3.519452e+003,1.329151e-001
3.521380e+003,1.309073e-001
3.523309e+003,1.281835e-001
3.525237e+003,1.266361e-001
3.527166e+003,1.256045e-001
3.529094e+003,1.247551e-001
3.531022e+003,1.232648e-001
3.532951e+003,1.215837e-001
3.534879e+003,1.193891e-001
3.536808e+003,1.174887e-001
3.538736e+003,1.160771e-001
3.540665e+003,1.149234e-001
3.542593e+003,1.139066e-001
3.544522e+003,1.125774e-001
3.546450e+003,1.117049e-001
3.548379e+003,1.099294e-001
3.550307e+003,1.079860e-001
3.552236e+003,1.068580e-001
3.554164e+003,1.058517e-001
3.556093e+003,1.039894e-001
3.558021e+003,1.023300e-001
3.559949e+003,1.009239e-001
3.561878e+003,9.980892e-002
3.563806e+003,9.790015e-002
3.565735e+003,9.634776e-002
3.567663e+003,9.583540e-002
3.569592e+003,9.503108e-002
3.571520e+003,9.327974e-002
3.573449e+003,9.123225e-002
3.575377e+003,8.952305e-002
3.577306e+003,8.852532e-002
3.579234e+003,8.728658e-002
3.581163e+003,8.571065e-002
3.583091e+003,8.446325e-002
3.585020e+003,8.334886e-002
3.586948e+003,8.201331e-002
3.588876e+003,8.069231e-002
3.590805e+003,7.980640e-002
3.592733e+003,7.931087e-002
3.594662e+003,7.804060e-002
3.596590e+003,7.650501e-002
3.598519e+003,7.589822e-002
3.600447e+003,7.486548e-002
3.602376e+003,7.334489e-002
3.604304e+003,7.198495e-002
3.606233e+003,7.041224e-002
3.608161e+003,6.940027e-002
3.610090e+003,6.892170e-002
3.612018e+003,6.729317e-002
3.613947e+003,6.564686e-002
3.615875e+003,6.435193e-002
3.617803e+003,6.303181e-002
3.619732e+003,6.157983e-002
3.621660e+003,6.031442e-002
3.623589e+003,5.904256e-002
3.625517e+003,5.767201e-002
3.627446e+003,5.699128e-002
3.629374e+003,5.625394e-002
3.631303e+003,5.487673e-002
3.633231e+003,5.316034e-002
3.635160e+003,5.215933e-002
3.637088e+003,5.105727e-002
3.639017e+003,4.977095e-002
3.640945e+003,4.843341e-002
3.642874e+003,4.670255e-002
3.644802e+003,4.484843e-002
3.646730e+003,4.327718e-002
3.648659e+003,4.210397e-002
3.650587e+003,4.083243e-002
3.652516e+003,3.941066e-002
3.654444e+003,3.793730e-002
3.656373e+003,3.651344e-002
3.658301e+003,3.555712e-002
3.660230e+003,3.397850e-002
3.662158e+003,3.202844e-002
3.664087e+003,3.019438e-002
3.666015e+003,2.915912e-002
3.667944e+003,2.843062e-002
3.669872e+003,2.708609e-002
3.671801e+003,2.610707e-002
3.673729e+003,2.523988e-002
3.675657e+003,2.375960e-002
3.677586e+003,2.252417e-002
3.679514e+003,2.171505e-002
3.681443e+003,2.108886e-002
3.683371e+003,1.987487e-002
3.685300e+003,1.871500e-002
3.687228e+003,1.776425e-002
3.689157e+003,1.731524e-002
3.691085e+003,1.717668e-002
3.693014e+003,1.700184e-002
3.694942e+003,1.622653e-002
3.696871e+003,1.510054e-002
3.698799e+003,1.444089e-002
3.700728e+003,1.377539e-002
3.702656e+003,1.369728e-002
3.704584e+003,1.293327e-002
3.706513e+003,1.205326e-002
3.708441e+003,1.164856e-002
3.710370e+003,1.192038e-002
3.712298e+003,1.202962e-002
3.714227e+003,1.128339e-002
3.716155e+003,1.072679e-002
3.718084e+003,1.092644e-002
3.720012e+003,1.141865e-002
3.721941e+003,1.148887e-002
3.723869e+003,1.122422e-002
3.725798e+003,1.060886e-002
3.727726e+003,1.040281e-002
3.729655e+003,1.051794e-002
3.731583e+003,1.031960e-002
3.733511e+003,1.047805e-002
3.735440e+003,1.079377e-002
3.737368e+003,1.028649e-002
3.739297e+003,9.466843e-003
3.741225e+003,9.144474e-003
3.743154e+003,9.164575e-003
3.745082e+003,8.849801e-003
3.747011e+003,8.615789e-003
3.748939e+003,8.487849e-003
3.750868e+003,7.774495e-003
3.752796e+003,7.158369e-003
3.754725e+003,7.309134e-003
3.756653e+003,6.953446e-003
3.758582e+003,6.873490e-003
3.760510e+003,6.890927e-003
3.762438e+003,7.516787e-003
3.764367e+003,7.596659e-003
3.766295e+003,6.984894e-003
3.768224e+003,6.793750e-003
3.770152e+003,7.214660e-003
3.772081e+003,7.054969e-003
3.774009e+003,6.588057e-003
3.775938e+003,7.035841e-003
3.777866e+003,7.359513e-003
3.779795e+003,7.317862e-003
3.781723e+003,7.231774e-003
3.783652e+003,6.712444e-003
3.785580e+003,6.312394e-003
3.787509e+003,6.322513e-003
3.789437e+003,6.541703e-003
3.791365e+003,6.367196e-003
3.793294e+003,6.430009e-003
3.795222e+003,6.537229e-003
3.797151e+003,6.402704e-003
3.799079e+003,6.334180e-003
3.801008e+003,6.445108e-003
3.802936e+003,6.757672e-003
3.804865e+003,6.956072e-003
3.806793e+003,6.667826e-003
3.808722e+003,5.842988e-003
3.810650e+003,5.913484e-003
3.812579e+003,6.344535e-003
3.814507e+003,6.681924e-003
3.816436e+003,6.926983e-003
3.818364e+003,6.864334e-003
3.820292e+003,6.376207e-003
3.822221e+003,5.843156e-003
3.824149e+003,5.478230e-003
3.826078e+003,5.754103e-003
3.828006e+003,5.995951e-003
3.829935e+003,5.861728e-003
3.831863e+003,6.063582e-003
3.833792e+003,6.359766e-003
3.835720e+003,6.002200e-003
3.837649e+003,6.266674e-003
3.839577e+003,6.630480e-003
3.841506e+003,6.335625e-003
3.843434e+003,6.329203e-003
3.845363e+003,6.110020e-003
3.847291e+003,5.598674e-003
3.849219e+003,5.667956e-003
3.851148e+003,5.688265e-003
3.853076e+003,5.737416e-003
3.855005e+003,6.203985e-003
3.856933e+003,6.395373e-003
3.858862e+003,6.164898e-003
3.860790e+003,5.686319e-003
3.862719e+003,5.924467e-003
3.864647e+003,6.581262e-003
3.866576e+003,6.830235e-003
3.868504e+003,6.077257e-003
3.870433e+003,5.434779e-003
3.872361e+003,5.505108e-003
3.874290e+003,5.327160e-003
3.876218e+003,6.017150e-003
3.878146e+003,6.302241e-003
3.880075e+003,5.709550e-003
3.882003e+003,5.503866e-003
3.883932e+003,5.754372e-003
3.885860e+003,5.159444e-003
3.887789e+003,4.827020e-003
3.889717e+003,4.733888e-003
3.891646e+003,4.420501e-003
3.893574e+003,5.053334e-003
3.895503e+003,5.735838e-003
3.897431e+003,5.636402e-003
3.899360e+003,5.331419e-003
3.901288e+003,5.374625e-003
3.903217e+003,5.528867e-003
3.905145e+003,5.400122e-003
3.907073e+003,4.933745e-003
3.909002e+003,4.924059e-003
3.910930e+003,5.671212e-003
3.912859e+003,5.893163e-003
3.914787e+003,5.767635e-003
3.916716e+003,5.305726e-003
3.918644e+003,4.931130e-003
3.920573e+003,5.205684e-003
3.922501e+003,5.715291e-003
3.924430e+003,6.264489e-003
3.926358e+003,6.475242e-003
3.928287e+003,6.261094e-003
3.930215e+003,5.910797e-003
3.932144e+003,5.527491e-003
3.934072e+003,5.792751e-003
3.936000e+003,5.829253e-003
3.937929e+003,5.101373e-003
3.939857e+003,4.839685e-003
3.941786e+003,5.512759e-003
3.943714e+003,5.982043e-003
3.945643e+003,5.671816e-003
3.947571e+003,5.729560e-003
3.949500e+003,5.877781e-003
3.951428e+003,5.203739e-003
3.953357e+003,5.436691e-003
3.955285e+003,6.036871e-003
3.957214e+003,5.909017e-003
3.959142e+003,5.978516e-003
3.961071e+003,5.863911e-003
3.962999e+003,5.697733e-003
3.964927e+003,5.783282e-003
3.966856e+003,5.608542e-003
3.968784e+003,4.928081e-003
3.970713e+003,5.149620e-003
3.972641e+003,5.639792e-003
3.974570e+003,5.687762e-003
3.976498e+003,5.699042e-003
3.978427e+003,6.235110e-003
3.980355e+003,6.092210e-003
3.982284e+003,5.358557e-003
3.984212e+003,5.236703e-003
3.986141e+003,5.763068e-003
3.988069e+003,5.969076e-003
3.989998e+003,5.674401e-003
3.991926e+003,6.081156e-003
3.993854e+003,6.296862e-003
3.995783e+003,5.694174e-003
3.997711e+003,5.715224e-003
3.999640e+003,6.199851e-003
4.001568e+003,0.000000e+000
