3.991927e+002,0.000000e+000
4.011211e+002,0.000000e+000
4.030496e+002,0.000000e+000
4.049781e+002,0.000000e+000
4.069065e+002,0.000000e+000
4.088350e+002,0.000000e+000
4.107635e+002,0.000000e+000
4.126919e+002,0.000000e+000
4.146204e+002,0.000000e+000
4.165489e+002,0.000000e+000
4.184773e+002,0.000000e+000
4.204058e+002,0.000000e+000
4.223343e+002,0.000000e+000
4.242627e+002,0.000000e+000
4.261912e+002,0.000000e+000
4.281197e+002,0.000000e+000
4.300481e+002,0.000000e+000
4.319766e+002,0.000000e+000
4.339051e+002,0.000000e+000
4.358335e+002,0.000000e+000
4.377620e+002,0.000000e+000
4.396905e+002,0.000000e+000
4.416189e+002,0.000000e+000
4.435474e+002,0.000000e+000
4.454759e+002,0.000000e+000
4.474043e+002,0.000000e+000
4.493328e+002,0.000000e+000
4.512613e+002,0.000000e+000
4.531897e+002,0.000000e+000
4.551182e+002,0.000000e+000
4.570467e+002,0.000000e+000
4.589751e+002,0.000000e+000
4.609036e+002,0.000000e+000
4.628321e+002,0.000000e+000
4.647605e+002,0.000000e+000
4.666890e+002,0.000000e+000
4.686175e+002,0.000000e+000
4.705459e+002,0.000000e+000
4.724744e+002,0.000000e+000
4.744029e+002,0.000000e+000
4.763313e+002,0.000000e+000
4.782598e+002,0.000000e+000
4.801883e+002,0.000000e+000
4.821167e+002,0.000000e+000
4.840452e+002,0.000000e+000
4.859737e+002,0.000000e+000
4.879021e+002,0.000000e+000
4.898306e+002,0.000000e+000
4.917591e+002,0.000000e+000
4.936875e+002,0.000000e+000
4.956160e+002,0.000000e+000
4.975445e+002,0.000000e+000
4.994729e+002,0.000000e+000
5.014014e+002,0.000000e+000
5.033299e+002,0.000000e+000
5.052583e+002,0.000000e+000
5.071868e+002,0.000000e+000
5.091153e+002,0.000000e+000
5.110437e+002,0.000000e+000
5.129722e+002,0.000000e+000
5.149006e+002,0.000000e+000
5.168291e+002,0.000000e+000
5.187576e+002,0.000000e+000
5.206860e+002,0.000000e+000
5.226145e+002,0.000000e+000
5.245430e+002,0.000000e+000
5.264714e+002,0.000000e+000
5.283999e+002,0.000000e+000
5.303284e+002,0.000000e+000
5.322568e+002,0.000000e+000
5.341853e+002,0.000000e+000
5.361138e+002,0.000000e+000
5.380422e+002,0.000000e+000
5.399707e+002,0.000000e+000
5.418992e+002,0.000000e+000
5.438276e+002,0.000000e+000
5.457561e+002,0.000000e+000
5.476846e+002,0.000000e+000
5.496130e+002,0.000000e+000
5.515415e+002,0.000000e+000
5.534700e+002,0.000000e+000
5.553984e+002,0.000000e+000
5.573269e+002,0.000000e+000
5.592554e+002,0.000000e+000
5.611838e+002,0.000000e+000
5.631123e+002,0.000000e+000
5.650408e+002,0.000000e+000
5.669692e+002,0.000000e+000
5.688977e+002,0.000000e+000
5.708262e+002,0.000000e+000
5.727546e+002,0.000000e+000
5.746831e+002,0.000000e+000
5.766116e+002,0.000000e+000
5.785400e+002,0.000000e+000
5.804685e+002,0.000000e+000
5.823970e+002,0.000000e+000
5.843254e+002,0.000000e+000
5.862539e+002,0.000000e+000
5.881824e+002,0.000000e+000
5.901108e+002,0.000000e+000
5.920393e+002,0.000000e+000
5.939678e+002,0.000000e+000
5.958962e+002,0.000000e+000
5.978247e+002,0.000000e+000
5.997532e+002,0.000000e+000
6.016816e+002,0.000000e+000
6.036101e+002,0.000000e+000
6.055386e+002,0.000000e+000
6.074670e+002,0.000000e+000
6.093955e+002,0.000000e+000
6.113240e+002,0.000000e+000
6.132524e+002,0.000000e+000
6.151809e+002,0.000000e+000
6.171094e+002,0.000000e+000
6.190378e+002,0.000000e+000
6.209663e+002,0.000000e+000
6.228948e+002,0.000000e+000
6.248232e+002,0.000000e+000
6.267517e+002,0.000000e+000
6.286802e+002,0.000000e+000
6.306086e+002,0.000000e+000
6.325371e+002,0.000000e+000
6.344656e+002,0.000000e+000
6.363940e+002,0.000000e+000
6.383225e+002,0.000000e+000
6.402510e+002,0.000000e+000
6.421794e+002,0.000000e+000
6.441079e+002,0.000000e+000
6.460364e+002,0.000000e+000
6.479648e+002,0.000000e+000
6.498933e+002,1.383082e-001
6.518218e+002,1.372430e-001
6.537502e+002,1.350998e-001
6.556787e+002,1.328052e-001
6.576072e+002,1.319097e-001
6.595356e+002,1.312403e-001
6.614641e+002,1.289748e-001
6.633926e+002,1.277858e-001
6.653210e+002,1.282228e-001
6.672495e+002,1.268528e-001
6.691780e+002,1.254594e-001
6.711064e+002,1.242779e-001
6.730349e+002,1.232487e-001
6.749634e+002,1.229415e-001
6.768918e+002,1.226894e-001
6.788203e+002,1.209013e-001
6.807488e+002,1.192999e-001
6.826772e+002,1.184892e-001
6.846057e+002,1.187781e-001
6.865342e+002,1.191298e-001
6.884626e+002,1.191039e-001
6.903911e+002,1.183764e-001
6.923196e+002,1.185237e-001
6.942480e+002,1.180255e-001
6.961765e+002,1.173563e-001
6.981050e+002,1.161986e-001
7.000334e+002,1.146823e-001
7.019619e+002,1.135749e-001
7.038904e+002,1.129023e-001
7.058188e+002,1.121160e-001
7.077473e+002,1.110655e-001
7.096758e+002,1.111421e-001
7.116042e+002,1.112783e-001
7.135327e+002,1.115761e-001
7.154612e+002,1.121872e-001
7.173896e+002,1.116208e-001
7.193181e+002,1.113644e-001
7.212466e+002,1.114346e-001
7.231750e+002,1.111886e-001
7.251035e+002,1.120416e-001
7.270320e+002,1.138069e-001
7.289604e+002,1.154903e-001
7.308889e+002,1.166036e-001
7.328174e+002,1.170149e-001
7.347458e+002,1.160623e-001
7.366743e+002,1.157734e-001
7.386028e+002,1.162451e-001
7.405313e+002,1.165024e-001
7.424597e+002,1.175404e-001
7.443882e+002,1.193386e-001
7.463167e+002,1.202725e-001
7.482451e+002,1.204519e-001
7.501736e+002,1.203834e-001
7.521021e+002,1.200722e-001
7.540305e+002,1.203855e-001
7.559590e+002,1.199829e-001
7.578875e+002,1.191266e-001
7.598159e+002,1.180618e-001
7.617444e+002,1.172716e-001
7.636729e+002,1.166475e-001
7.656013e+002,1.165512e-001
7.675298e+002,1.156493e-001
7.694583e+002,1.152882e-001
7.713867e+002,1.149348e-001
7.733152e+002,1.148001e-001
7.752437e+002,1.156469e-001
7.771721e+002,1.163260e-001
7.791006e+002,1.166487e-001
7.810291e+002,1.169919e-001
7.829575e+002,1.170396e-001
7.848860e+002,1.170228e-001
7.868145e+002,1.172516e-001
7.887429e+002,1.168585e-001
7.906714e+002,1.167182e-001
7.925999e+002,1.159906e-001
7.945283e+002,1.138070e-001
7.964568e+002,1.126470e-001
7.983853e+002,1.119437e-001
8.003137e+002,1.120638e-001
8.022422e+002,1.134538e-001
8.041707e+002,1.149470e-001
8.060991e+002,1.159289e-001
8.080276e+002,1.179420e-001
8.099561e+002,1.205129e-001
8.118845e+002,1.224766e-001
8.138130e+002,1.228204e-001
8.157415e+002,1.226992e-001
8.176699e+002,1.245423e-001
8.195984e+002,1.240179e-001
8.215269e+002,1.209658e-001
8.234553e+002,1.190508e-001
8.253838e+002,1.183055e-001
8.273123e+002,1.166038e-001
8.292407e+002,1.147303e-001
8.311692e+002,1.141554e-001
8.330977e+002,1.129952e-001
8.350261e+002,1.114938e-001
8.369546e+002,1.100778e-001
8.388831e+002,1.090293e-001
8.408115e+002,1.084387e-001
8.427400e+002,1.093317e-001
8.446685e+002,1.113594e-001
8.465969e+002,1.126330e-001
8.485254e+002,1.139931e-001
8.504539e+002,1.152596e-001
8.523823e+002,1.155041e-001
8.543108e+002,1.148666e-001
8.562393e+002,1.147166e-001
8.581677e+002,1.142333e-001
8.600962e+002,1.126515e-001
8.620247e+002,1.119951e-001
8.639531e+002,1.112315e-001
8.658816e+002,1.094617e-001
8.678101e+002,1.084610e-001
8.697385e+002,1.074661e-001
8.716670e+002,1.078097e-001
8.735955e+002,1.088918e-001
8.755239e+002,1.079831e-001
8.774524e+002,1.063981e-001
8.793809e+002,1.053411e-001
8.813093e+002,1.056694e-001
8.832378e+002,1.060745e-001
8.851663e+002,1.057179e-001
8.870947e+002,1.054387e-001
8.890232e+002,1.056297e-001
8.909517e+002,1.054411e-001
8.928801e+002,1.037738e-001
8.948086e+002,1.026976e-001
8.967371e+002,1.032626e-001
8.986655e+002,1.043368e-001
9.005940e+002,1.048885e-001
9.025225e+002,1.051026e-001
9.044509e+002,1.056610e-001
9.063794e+002,1.069365e-001
9.083079e+002,1.081004e-001
9.102363e+002,1.095829e-001
9.121648e+002,1.103445e-001
9.140933e+002,1.107812e-001
9.160217e+002,1.119630e-001
9.179502e+002,1.125892e-001
9.198787e+002,1.120722e-001
9.218071e+002,1.119770e-001
9.237356e+002,1.120287e-001
9.256641e+002,1.117573e-001
9.275925e+002,1.120018e-001
9.295210e+002,1.124717e-001
9.314495e+002,1.128030e-001
9.333779e+002,1.126405e-001
9.353064e+002,1.125777e-001
9.372349e+002,1.129924e-001
9.391633e+002,1.127192e-001
9.410918e+002,1.129682e-001
9.430203e+002,1.142047e-001
9.449487e+002,1.153808e-001
9.468772e+002,1.154610e-001
9.488057e+002,1.155045e-001
9.507341e+002,1.167398e-001
9.526626e+002,1.180650e-001
9.545911e+002,1.186073e-001
9.565195e+002,1.190440e-001
9.584480e+002,1.201163e-001
9.603765e+002,1.215996e-001
9.623049e+002,1.230511e-001
9.642334e+002,1.244305e-001
9.661619e+002,1.257028e-001
9.680903e+002,1.266302e-001
9.700188e+002,1.267536e-001
9.719473e+002,1.269700e-001
9.738757e+002,1.273813e-001
9.758042e+002,1.276063e-001
9.777327e+002,1.279446e-001
9.796611e+002,1.287906e-001
9.815896e+002,1.299624e-001
9.835181e+002,1.311386e-001
9.854465e+002,1.322545e-001
9.873750e+002,1.331246e-001
9.893035e+002,1.344375e-001
9.912319e+002,1.357149e-001
9.931604e+002,1.369019e-001
9.950889e+002,1.389062e-001
9.970173e+002,1.407720e-001
9.989458e+002,1.426056e-001
1.000874e+003,1.443569e-001
1.002803e+003,1.463513e-001
1.004731e+003,1.492562e-001
1.006660e+003,1.520459e-001
1.008588e+003,1.549761e-001
1.010517e+003,1.587118e-001
1.012445e+003,1.627022e-001
1.014374e+003,1.656906e-001
1.016302e+003,1.687846e-001
1.018230e+003,1.722944e-001
1.020159e+003,1.759643e-001
1.022087e+003,1.797776e-001
1.024016e+003,1.835683e-001
1.025944e+003,1.876931e-001
1.027873e+003,1.910953e-001
1.029801e+003,1.927650e-001
1.031730e+003,1.925289e-001
1.033658e+003,1.893594e-001
1.035587e+003,1.840330e-001
1.037515e+003,1.782419e-001
1.039444e+003,1.725805e-001
1.041372e+003,1.668848e-001
1.043301e+003,1.622443e-001
1.045229e+003,1.589524e-001
1.047157e+003,1.566034e-001
1.049086e+003,1.543965e-001
1.051014e+003,1.529630e-001
1.052943e+003,1.522351e-001
1.054871e+003,1.510176e-001
1.056800e+003,1.501807e-001
1.058728e+003,1.493512e-001
1.060657e+003,1.483105e-001
1.062585e+003,1.472253e-001
1.064514e+003,1.477656e-001
1.066442e+003,1.488530e-001
1.068371e+003,1.492116e-001
1.070299e+003,1.495882e-001
1.072228e+003,1.497141e-001
1.074156e+003,1.501199e-001
1.076084e+003,1.503053e-001
1.078013e+003,1.501283e-001
1.079941e+003,1.502825e-001
1.081870e+003,1.503225e-001
1.083798e+003,1.494694e-001
1.085727e+003,1.483216e-001
1.087655e+003,1.480761e-001
1.089584e+003,1.481740e-001
1.091512e+003,1.470584e-001
1.093441e+003,1.462689e-001
1.095369e+003,1.457170e-001
1.097298e+003,1.455319e-001
1.099226e+003,1.451450e-001
1.101155e+003,1.446620e-001
1.103083e+003,1.451839e-001
1.105011e+003,1.461182e-001
1.106940e+003,1.479094e-001
1.108868e+003,1.499644e-001
1.110797e+003,1.511983e-001
1.112725e+003,1.516316e-001
1.114654e+003,1.522478e-001
1.116582e+003,1.538793e-001
1.118511e+003,1.549474e-001
1.120439e+003,1.545647e-001
1.122368e+003,1.528084e-001
1.124296e+003,1.497856e-001
1.126225e+003,1.456828e-001
1.128153e+003,1.408561e-001
1.130082e+003,1.366712e-001
1.132010e+003,1.337861e-001
1.133938e+003,1.317074e-001
1.135867e+003,1.305448e-001
1.137795e+003,1.304661e-001
1.139724e+003,1.311109e-001
1.141652e+003,1.318021e-001
1.143581e+003,1.332602e-001
1.145509e+003,1.354267e-001
1.147438e+003,1.373591e-001
1.149366e+003,1.393044e-001
1.151295e+003,1.400087e-001
1.153223e+003,1.384943e-001
1.155152e+003,1.360074e-001
1.157080e+003,1.334578e-001
1.159009e+003,1.306447e-001
1.160937e+003,1.285052e-001
1.162865e+003,1.269286e-001
1.164794e+003,1.256076e-001
1.166722e+003,1.253067e-001
1.168651e+003,1.261641e-001
1.170579e+003,1.268133e-001
1.172508e+003,1.268031e-001
1.174436e+003,1.279315e-001
1.176365e+003,1.295099e-001
1.178293e+003,1.310336e-001
1.180222e+003,1.324787e-001
1.182150e+003,1.338038e-001
1.184079e+003,1.350297e-001
1.186007e+003,1.364734e-001
1.187936e+003,1.381490e-001
1.189864e+003,1.396426e-001
1.191792e+003,1.411613e-001
1.193721e+003,1.427559e-001
1.195649e+003,1.443443e-001
1.197578e+003,1.459699e-001
1.199506e+003,1.475871e-001
1.201435e+003,1.492260e-001
1.203363e+003,1.504768e-001
1.205292e+003,1.511940e-001
1.207220e+003,1.511868e-001
1.209149e+003,1.508139e-001
1.211077e+003,1.502922e-001
1.213006e+003,1.491980e-001
1.214934e+003,1.476916e-001
1.216863e+003,1.467113e-001
1.218791e+003,1.460094e-001
1.220719e+003,1.453327e-001
1.222648e+003,1.445121e-001
1.224576e+003,1.437629e-001
1.226505e+003,1.434643e-001
1.228433e+003,1.436931e-001
1.230362e+003,1.440718e-001
1.232290e+003,1.444597e-001
1.234219e+003,1.441310e-001
1.236147e+003,1.432927e-001
1.238076e+003,1.417253e-001
1.240004e+003,1.391251e-001
1.241933e+003,1.365149e-001
1.243861e+003,1.350094e-001
1.245790e+003,1.340877e-001
1.247718e+003,1.334026e-001
1.249646e+003,1.333576e-001
1.251575e+003,1.340959e-001
1.253503e+003,1.352479e-001
1.255432e+003,1.363188e-001
1.257360e+003,1.377229e-001
1.259289e+003,1.391443e-001
1.261217e+003,1.403860e-001
1.263146e+003,1.414944e-001
1.265074e+003,1.429566e-001
1.267003e+003,1.444416e-001
1.268931e+003,1.446763e-001
1.270860e+003,1.429081e-001
1.272788e+003,1.398841e-001
1.274717e+003,1.358396e-001
1.276645e+003,1.312996e-001
1.278573e+003,1.268293e-001
1.280502e+003,1.220735e-001
1.282430e+003,1.174940e-001
1.284359e+003,1.136959e-001
1.286287e+003,1.102034e-001
1.288216e+003,1.064703e-001
1.290144e+003,1.026980e-001
1.292073e+003,9.954786e-002
1.294001e+003,9.650406e-002
1.295930e+003,9.326072e-002
1.297858e+003,9.045382e-002
1.299787e+003,8.839290e-002
1.301715e+003,8.630977e-002
1.303644e+003,8.434425e-002
1.305572e+003,8.249631e-002
1.307500e+003,8.101381e-002
1.309429e+003,7.999327e-002
1.311357e+003,7.891536e-002
1.313286e+003,7.787412e-002
1.315214e+003,7.703445e-002
1.317143e+003,7.627358e-002
1.319071e+003,7.566833e-002
1.321000e+003,7.532246e-002
1.322928e+003,7.502440e-002
1.324857e+003,7.459597e-002
1.326785e+003,7.431188e-002
1.328714e+003,7.409157e-002
1.330642e+003,7.404174e-002
1.332571e+003,7.402504e-002
1.334499e+003,7.399181e-002
1.336427e+003,7.412650e-002
1.338356e+003,7.428763e-002
1.340284e+003,7.435718e-002
1.342213e+003,7.496957e-002
1.344141e+003,7.598378e-002
1.346070e+003,7.691328e-002
1.347998e+003,7.783773e-002
1.349927e+003,7.915770e-002
1.351855e+003,8.100303e-002
1.353784e+003,8.241478e-002
1.355712e+003,8.366165e-002
1.357641e+003,8.448337e-002
1.359569e+003,8.476537e-002
1.361498e+003,8.512038e-002
1.363426e+003,8.506939e-002
1.365354e+003,8.473343e-002
1.367283e+003,8.427324e-002
1.369211e+003,8.387559e-002
1.371140e+003,8.343501e-002
1.373068e+003,8.283579e-002
1.374997e+003,8.218379e-002
1.376925e+003,8.139866e-002
1.378854e+003,8.062731e-002
1.380782e+003,7.933724e-002
1.382711e+003,7.756348e-002
1.384639e+003,7.572147e-002
1.386568e+003,7.390203e-002
1.388496e+003,7.233854e-002
1.390425e+003,7.099720e-002
1.392353e+003,6.984176e-002
1.394281e+003,6.907538e-002
1.396210e+003,6.823812e-002
1.398138e+003,6.745259e-002
1.400067e+003,6.730822e-002
1.401995e+003,6.770948e-002
1.403924e+003,6.840678e-002
1.405852e+003,6.926025e-002
1.407781e+003,6.990065e-002
1.409709e+003,7.040873e-002
1.411638e+003,7.133223e-002
1.413566e+003,7.263286e-002
1.415495e+003,7.383904e-002
1.417423e+003,7.556012e-002
1.419352e+003,7.793295e-002
1.421280e+003,8.041282e-002
1.423208e+003,8.303669e-002
1.425137e+003,8.573790e-002
1.427065e+003,8.787149e-002
1.428994e+003,8.932080e-002
1.430922e+003,8.946320e-002
1.432851e+003,8.851048e-002
1.434779e+003,8.721833e-002
1.436708e+003,8.615872e-002
1.438636e+003,8.559079e-002
1.440565e+003,8.596663e-002
1.442493e+003,8.721270e-002
1.444422e+003,8.925141e-002
1.446350e+003,9.172243e-002
1.448279e+003,9.349062e-002
1.450207e+003,9.435924e-002
1.452135e+003,9.451668e-002
1.454064e+003,9.380978e-002
1.455992e+003,9.277885e-002
1.457921e+003,9.192546e-002
1.459849e+003,9.141064e-002
1.461778e+003,9.143559e-002
1.463706e+003,9.026093e-002
1.465635e+003,8.694234e-002
1.467563e+003,8.154036e-002
1.469492e+003,7.518908e-002
1.471420e+003,6.933624e-002
1.473349e+003,6.436058e-002
1.475277e+003,6.027605e-002
1.477206e+003,5.730633e-002
1.479134e+003,5.549718e-002
1.481063e+003,5.440815e-002
1.482991e+003,5.374774e-002
1.484919e+003,5.325801e-002
1.486848e+003,5.346486e-002
1.488776e+003,5.425949e-002
1.490705e+003,5.516979e-002
1.492633e+003,5.665618e-002
1.494562e+003,5.905672e-002
1.496490e+003,6.192092e-002
1.498419e+003,6.552320e-002
1.500347e+003,7.027242e-002
1.502276e+003,7.526836e-002
1.504204e+003,8.025280e-002
1.506133e+003,8.609144e-002
1.508061e+003,9.367352e-002
1.509990e+003,1.027706e-001
1.511918e+003,1.103010e-001
1.513846e+003,1.123372e-001
1.515775e+003,1.061901e-001
1.517703e+003,9.321468e-002
1.519632e+003,7.790004e-002
1.521560e+003,6.393313e-002
1.523489e+003,5.307407e-002
1.525417e+003,4.471076e-002
1.527346e+003,3.816969e-002
1.529274e+003,3.343114e-002
1.531203e+003,3.019087e-002
1.533131e+003,2.828171e-002
1.535060e+003,2.744398e-002
1.536988e+003,2.727653e-002
1.538917e+003,2.746318e-002
1.540845e+003,2.806435e-002
1.542773e+003,2.824738e-002
1.544702e+003,2.774042e-002
1.546630e+003,2.733398e-002
1.548559e+003,2.723099e-002
1.550487e+003,2.760969e-002
1.552416e+003,2.821170e-002
1.554344e+003,2.903210e-002
1.556273e+003,3.006596e-002
1.558201e+003,3.106442e-002
1.560130e+003,3.205501e-002
1.562058e+003,3.337156e-002
1.563987e+003,3.469843e-002
1.565915e+003,3.606209e-002
1.567844e+003,3.781720e-002
1.569772e+003,3.984717e-002
1.571700e+003,4.198556e-002
1.573629e+003,4.450451e-002
1.575557e+003,4.695838e-002
1.577486e+003,4.950053e-002
1.579414e+003,5.196868e-002
1.581343e+003,5.401362e-002
1.583271e+003,5.630822e-002
1.585200e+003,5.838049e-002
1.587128e+003,5.978458e-002
1.589057e+003,6.119169e-002
1.590985e+003,6.296474e-002
1.592914e+003,6.483953e-002
1.594842e+003,6.660388e-002
1.596771e+003,6.777006e-002
1.598699e+003,6.852172e-002
1.600627e+003,6.899184e-002
1.602556e+003,6.901836e-002
1.604484e+003,6.812113e-002
1.606413e+003,6.664857e-002
1.608341e+003,6.531750e-002
1.610270e+003,6.396607e-002
1.612198e+003,6.235905e-002
1.614127e+003,5.983709e-002
1.616055e+003,5.716144e-002
1.617984e+003,5.414234e-002
1.619912e+003,5.136372e-002
1.621841e+003,4.940291e-002
1.623769e+003,4.752222e-002
1.625698e+003,4.603653e-002
1.627626e+003,4.526613e-002
1.629554e+003,4.463133e-002
1.631483e+003,4.397387e-002
1.633411e+003,4.372279e-002
1.635340e+003,4.368249e-002
1.637268e+003,4.377556e-002
1.639197e+003,4.412213e-002
1.641125e+003,4.460496e-002
1.643054e+003,4.453858e-002
1.644982e+003,4.450506e-002
1.646911e+003,4.501651e-002
1.648839e+003,4.579044e-002
1.650768e+003,4.618882e-002
1.652696e+003,4.663960e-002
1.654625e+003,4.739119e-002
1.656553e+003,4.790087e-002
1.658481e+003,4.836174e-002
1.660410e+003,4.867508e-002
1.662338e+003,4.895748e-002
1.664267e+003,4.957354e-002
1.666195e+003,5.009980e-002
1.668124e+003,5.076300e-002
1.670052e+003,5.152702e-002
1.671981e+003,5.204020e-002
1.673909e+003,5.262814e-002
1.675838e+003,5.339959e-002
1.677766e+003,5.425247e-002
1.679695e+003,5.515180e-002
1.681623e+003,5.599894e-002
1.683552e+003,5.726682e-002
1.685480e+003,5.859556e-002
1.687408e+003,6.015033e-002
1.689337e+003,6.188187e-002
1.691265e+003,6.323862e-002
1.693194e+003,6.493394e-002
1.695122e+003,6.641810e-002
1.697051e+003,6.725401e-002
1.698979e+003,6.787189e-002
1.700908e+003,6.820536e-002
1.702836e+003,6.813245e-002
1.704765e+003,6.788541e-002
1.706693e+003,6.753708e-002
1.708622e+003,6.696492e-002
1.710550e+003,6.593598e-002
1.712479e+003,6.467371e-002
1.714407e+003,6.338632e-002
1.716335e+003,6.171073e-002
1.718264e+003,5.974906e-002
1.720192e+003,5.803584e-002
1.722121e+003,5.633115e-002
1.724049e+003,5.445022e-002
1.725978e+003,5.241960e-002
1.727906e+003,5.055017e-002
1.729835e+003,4.903252e-002
1.731763e+003,4.768478e-002
1.733692e+003,4.636640e-002
1.735620e+003,4.519277e-002
1.737549e+003,4.386455e-002
1.739477e+003,4.223512e-002
1.741406e+003,4.041028e-002
1.743334e+003,3.852513e-002
1.745262e+003,3.689167e-002
1.747191e+003,3.511836e-002
1.749119e+003,3.347670e-002
1.751048e+003,3.203650e-002
1.752976e+003,3.096613e-002
1.754905e+003,2.983972e-002
1.756833e+003,2.863287e-002
1.758762e+003,2.746996e-002
1.760690e+003,2.630782e-002
1.762619e+003,2.506050e-002
1.764547e+003,2.374052e-002
1.766476e+003,2.262727e-002
1.768404e+003,2.170902e-002
1.770333e+003,2.071472e-002
1.772261e+003,1.962343e-002
1.774189e+003,1.853478e-002
1.776118e+003,1.769933e-002
1.778046e+003,1.689142e-002
1.779975e+003,1.616600e-002
1.781903e+003,1.557814e-002
1.783832e+003,1.481627e-002
1.785760e+003,1.413842e-002
1.787689e+003,1.350952e-002
1.789617e+003,1.292815e-002
1.791546e+003,1.243892e-002
1.793474e+003,1.184172e-002
1.795403e+003,1.124554e-002
1.797331e+003,1.088050e-002
1.799260e+003,1.038543e-002
1.801188e+003,1.012536e-002
1.803116e+003,9.885709e-003
1.805045e+003,9.357205e-003
1.806973e+003,8.858728e-003
1.808902e+003,8.453825e-003
1.810830e+003,8.069586e-003
1.812759e+003,7.804889e-003
1.814687e+003,7.730443e-003
1.816616e+003,7.702954e-003
1.818544e+003,7.631728e-003
1.820473e+003,7.497437e-003
1.822401e+003,7.391968e-003
1.824330e+003,7.330364e-003
1.826258e+003,7.232919e-003
1.828187e+003,7.128694e-003
1.830115e+003,7.039411e-003
1.832043e+003,6.982840e-003
1.833972e+003,7.038131e-003
1.835900e+003,7.146007e-003
1.837829e+003,7.205665e-003
1.839757e+003,7.287030e-003
1.841686e+003,7.396787e-003
1.843614e+003,7.380037e-003
1.845543e+003,7.325915e-003
1.847471e+003,7.328207e-003
1.849400e+003,7.437840e-003
1.851328e+003,7.480211e-003
1.853257e+003,7.487324e-003
1.855185e+003,7.554614e-003
1.857114e+003,7.531756e-003
1.859042e+003,7.535835e-003
1.860970e+003,7.592714e-003
1.862899e+003,7.687339e-003
1.864827e+003,7.843281e-003
1.866756e+003,7.770278e-003
1.868684e+003,7.679548e-003
1.870613e+003,7.795106e-003
1.872541e+003,7.783704e-003
1.874470e+003,7.683797e-003
1.876398e+003,7.742619e-003
1.878327e+003,7.881204e-003
1.880255e+003,7.847195e-003
1.882183e+003,7.922674e-003
1.884112e+003,8.051561e-003
1.886040e+003,7.898547e-003
1.887969e+003,7.925407e-003
1.889897e+003,8.079578e-003
1.891826e+003,7.954495e-003
1.893754e+003,7.714759e-003
1.895683e+003,7.619758e-003
1.897611e+003,7.668318e-003
1.899540e+003,7.674658e-003
1.901468e+003,7.590118e-003
1.903397e+003,7.587825e-003
1.905325e+003,7.588601e-003
1.907254e+003,7.568270e-003
1.909182e+003,7.598211e-003
1.911110e+003,7.640361e-003
1.913039e+003,7.617094e-003
1.914967e+003,7.713983e-003
1.916896e+003,7.787178e-003
1.918824e+003,7.755538e-003
1.920753e+003,7.947712e-003
1.922681e+003,8.125151e-003
1.924610e+003,8.056624e-003
1.926538e+003,8.003295e-003
1.928467e+003,7.932729e-003
1.930395e+003,7.809375e-003
1.932324e+003,7.955676e-003
1.934252e+003,8.177009e-003
1.936181e+003,8.178934e-003
1.938109e+003,8.073536e-003
1.940037e+003,7.919637e-003
1.941966e+003,7.965328e-003
1.943894e+003,8.151080e-003
1.945823e+003,8.138453e-003
1.947751e+003,7.888154e-003
1.949680e+003,7.929186e-003
1.951608e+003,8.259468e-003
1.953537e+003,8.391462e-003
1.955465e+003,8.285674e-003
1.957394e+003,8.263621e-003
1.959322e+003,8.376734e-003
1.961251e+003,8.447339e-003
1.963179e+003,8.335525e-003
1.965108e+003,8.140680e-003
1.967036e+003,8.125084e-003
1.968964e+003,8.241638e-003
1.970893e+003,8.353529e-003
1.972821e+003,8.237822e-003
1.974750e+003,8.176908e-003
1.976678e+003,8.185990e-003
1.978607e+003,8.097637e-003
1.980535e+003,8.132679e-003
1.982464e+003,8.139195e-003
1.984392e+003,8.121539e-003
1.986321e+003,8.257814e-003
1.988249e+003,8.461663e-003
1.990178e+003,8.329175e-003
1.992106e+003,8.192676e-003
1.994035e+003,8.313841e-003
1.995963e+003,8.490653e-003
1.997891e+003,8.635730e-003
1.999820e+003,8.503493e-003
2.001748e+003,8.546272e-003
2.003677e+003,8.706680e-003
2.005605e+003,8.681260e-003
2.007534e+003,8.621872e-003
2.009462e+003,8.683458e-003
2.011391e+003,8.560026e-003
2.013319e+003,8.675311e-003
2.015248e+003,8.764153e-003
2.017176e+003,8.827821e-003
2.019105e+003,8.952953e-003
2.021033e+003,8.914259e-003
2.022962e+003,8.743023e-003
2.024890e+003,8.723347e-003
2.026818e+003,8.638130e-003
2.028747e+003,8.555700e-003
2.030675e+003,8.639448e-003
2.032604e+003,8.670106e-003
2.034532e+003,8.733388e-003
2.036461e+003,8.969763e-003
2.038389e+003,9.173339e-003
2.040318e+003,9.234190e-003
2.042246e+003,9.109688e-003
2.044175e+003,9.021959e-003
2.046103e+003,9.043273e-003
2.048032e+003,8.915240e-003
2.049960e+003,8.981434e-003
2.051889e+003,9.080894e-003
2.053817e+003,9.012555e-003
2.055746e+003,8.939051e-003
2.057674e+003,9.145048e-003
2.059603e+003,9.266108e-003
2.061531e+003,9.229418e-003
2.063459e+003,9.263739e-003
2.065388e+003,9.335266e-003
2.067316e+003,9.186300e-003
2.069245e+003,9.057110e-003
2.071173e+003,9.168534e-003
2.073102e+003,9.238760e-003
2.075030e+003,9.280900e-003
2.076959e+003,9.245191e-003
2.078887e+003,9.064249e-003
2.080816e+003,8.852202e-003
2.082744e+003,8.942975e-003
2.084673e+003,9.091654e-003
2.086601e+003,8.898736e-003
2.088530e+003,8.808243e-003
2.090458e+003,8.783324e-003
2.092386e+003,8.566075e-003
2.094315e+003,8.653576e-003
2.096243e+003,8.881691e-003
2.098172e+003,9.048246e-003
2.100100e+003,8.901983e-003
2.102029e+003,8.797964e-003
2.103957e+003,8.763106e-003
2.105886e+003,8.776595e-003
2.107814e+003,8.910708e-003
2.109743e+003,8.904147e-003
2.111671e+003,8.791202e-003
2.113600e+003,8.880474e-003
2.115528e+003,9.029537e-003
2.117457e+003,9.055757e-003
2.119385e+003,9.104444e-003
2.121313e+003,9.164744e-003
2.123242e+003,9.043645e-003
2.125170e+003,8.840536e-003
2.127099e+003,8.821295e-003
2.129027e+003,8.639786e-003
2.130956e+003,8.597944e-003
2.132884e+003,8.797389e-003
2.134813e+003,9.018475e-003
2.136741e+003,9.103700e-003
2.138670e+003,9.139973e-003
2.140598e+003,9.082688e-003
2.142527e+003,9.052373e-003
2.144455e+003,9.106812e-003
2.146384e+003,8.996825e-003
2.148312e+003,8.960259e-003
2.150240e+003,9.087560e-003
2.152169e+003,9.028793e-003
2.154097e+003,8.769935e-003
2.156026e+003,8.723076e-003
2.157954e+003,8.910742e-003
2.159883e+003,8.972199e-003
2.161811e+003,8.884227e-003
2.163740e+003,8.988232e-003
2.165668e+003,9.095342e-003
2.167597e+003,8.961105e-003
2.169525e+003,8.851458e-003
2.171454e+003,8.707526e-003
2.173382e+003,8.802968e-003
2.175311e+003,9.005857e-003
2.177239e+003,8.988064e-003
2.179167e+003,8.792487e-003
2.181096e+003,8.954576e-003
2.183024e+003,9.240283e-003
2.184953e+003,9.287670e-003
2.186881e+003,9.250369e-003
2.188810e+003,9.095071e-003
2.190738e+003,9.040160e-003
2.192667e+003,9.224714e-003
2.194595e+003,9.424447e-003
2.196524e+003,9.251351e-003
2.198452e+003,9.177772e-003
2.200381e+003,9.331746e-003
2.202309e+003,9.175877e-003
2.204238e+003,8.986237e-003
2.206166e+003,9.280122e-003
2.208094e+003,9.430440e-003
2.210023e+003,9.125220e-003
2.211951e+003,9.062455e-003
2.213880e+003,9.152054e-003
2.215808e+003,9.174659e-003
2.217737e+003,9.122953e-003
2.219665e+003,9.133476e-003
2.221594e+003,8.959684e-003
2.223522e+003,8.994288e-003
2.225451e+003,9.165319e-003
2.227379e+003,9.152832e-003
2.229308e+003,9.188906e-003
2.231236e+003,9.037589e-003
2.233165e+003,9.181326e-003
2.235093e+003,9.376536e-003
2.237021e+003,9.291327e-003
2.238950e+003,9.179363e-003
2.240878e+003,9.371356e-003
2.242807e+003,9.193949e-003
2.244735e+003,8.964453e-003
2.246664e+003,9.289972e-003
2.248592e+003,9.430746e-003
2.250521e+003,9.481032e-003
2.252449e+003,9.466031e-003
2.254378e+003,9.392619e-003
2.256306e+003,9.341902e-003
2.258235e+003,9.479238e-003
2.260163e+003,9.377993e-003
2.262092e+003,9.321861e-003
2.264020e+003,9.357441e-003
2.265948e+003,9.290447e-003
2.267877e+003,9.330222e-003
2.269805e+003,9.419504e-003
2.271734e+003,9.221431e-003
2.273662e+003,9.128130e-003
2.275591e+003,9.497288e-003
2.277519e+003,9.700704e-003
2.279448e+003,9.674209e-003
2.281376e+003,9.686678e-003
2.283305e+003,9.524551e-003
2.285233e+003,9.641821e-003
2.287162e+003,1.008507e-002
2.289090e+003,1.026606e-002
2.291019e+003,1.015222e-002
2.292947e+003,9.779793e-003
2.294875e+003,9.919099e-003
2.296804e+003,9.974697e-003
2.298732e+003,9.798873e-003
2.300661e+003,9.845305e-003
2.302589e+003,1.001362e-002
2.304518e+003,9.868693e-003
2.306446e+003,9.808362e-003
2.308375e+003,9.885132e-003
2.310303e+003,9.861812e-003
2.312232e+003,9.864015e-003
2.314160e+003,1.002661e-002
2.316089e+003,1.022959e-002
2.318017e+003,1.003715e-002
2.319946e+003,1.000206e-002
2.321874e+003,1.003400e-002
2.323802e+003,1.018600e-002
2.325731e+003,1.013024e-002
2.327659e+003,1.022790e-002
2.329588e+003,1.038923e-002
2.331516e+003,1.015368e-002
2.333445e+003,9.929268e-003
2.335373e+003,1.008208e-002
2.337302e+003,1.013648e-002
2.339230e+003,1.000691e-002
2.341159e+003,9.961950e-003
2.343087e+003,1.005906e-002
2.345016e+003,1.013319e-002
2.346944e+003,1.022779e-002
2.348873e+003,1.037203e-002
2.350801e+003,1.045216e-002
2.352729e+003,1.048416e-002
2.354658e+003,1.039293e-002
2.356586e+003,1.035920e-002
2.358515e+003,1.038027e-002
2.360443e+003,1.047215e-002
2.362372e+003,1.054805e-002
2.364300e+003,1.044075e-002
2.366229e+003,1.028591e-002
2.368157e+003,1.030311e-002
2.370086e+003,1.020164e-002
2.372014e+003,1.019842e-002
2.373943e+003,1.045165e-002
2.375871e+003,1.062804e-002
2.377800e+003,1.080817e-002
2.379728e+003,1.081633e-002
2.381656e+003,1.087629e-002
2.383585e+003,1.079710e-002
2.385513e+003,1.065999e-002
2.387442e+003,1.071209e-002
2.389370e+003,1.083600e-002
2.391299e+003,1.072044e-002
2.393227e+003,1.077628e-002
2.395156e+003,1.104575e-002
2.397084e+003,1.101836e-002
2.399013e+003,1.099260e-002
2.400941e+003,1.107600e-002
2.402870e+003,1.124150e-002
2.404798e+003,1.137920e-002
2.406727e+003,1.134617e-002
2.408655e+003,1.119964e-002
2.410583e+003,1.124643e-002
2.412512e+003,1.139219e-002
2.414440e+003,1.139134e-002
2.416369e+003,1.116415e-002
2.418297e+003,1.109626e-002
2.420226e+003,1.118958e-002
2.422154e+003,1.117370e-002
2.424083e+003,1.124279e-002
2.426011e+003,1.160895e-002
2.427940e+003,1.169516e-002
2.429868e+003,1.133603e-002
2.431797e+003,1.151990e-002
2.433725e+003,1.168546e-002
2.435654e+003,1.164993e-002
2.437582e+003,1.146750e-002
2.439510e+003,1.130930e-002
2.441439e+003,1.163931e-002
2.443367e+003,1.170721e-002
2.445296e+003,1.176934e-002
2.447224e+003,1.176903e-002
2.449153e+003,1.156512e-002
2.451081e+003,1.146138e-002
2.453010e+003,1.176460e-002
2.454938e+003,1.179882e-002
2.456867e+003,1.157073e-002
2.458795e+003,1.152395e-002
2.460724e+003,1.149513e-002
2.462652e+003,1.141005e-002
2.464581e+003,1.137266e-002
2.466509e+003,1.176447e-002
2.468438e+003,1.191906e-002
2.470366e+003,1.195648e-002
2.472294e+003,1.219922e-002
2.474223e+003,1.220345e-002
2.476151e+003,1.179286e-002
2.478080e+003,1.182497e-002
2.480008e+003,1.209056e-002
2.481937e+003,1.192038e-002
2.483865e+003,1.187250e-002
2.485794e+003,1.205663e-002
2.487722e+003,1.221193e-002
2.489651e+003,1.232315e-002
2.491579e+003,1.240882e-002
2.493508e+003,1.249485e-002
2.495436e+003,1.242229e-002
2.497365e+003,1.217956e-002
2.499293e+003,1.215731e-002
2.501221e+003,1.250020e-002
2.503150e+003,1.267122e-002
2.505078e+003,1.252179e-002
2.507007e+003,1.252175e-002
2.508935e+003,1.255944e-002
2.510864e+003,1.230525e-002
2.512792e+003,1.215809e-002
2.514721e+003,1.252424e-002
2.516649e+003,1.274034e-002
2.518578e+003,1.290350e-002
2.520506e+003,1.290210e-002
2.522435e+003,1.288804e-002
2.524363e+003,1.293317e-002
2.526292e+003,1.281183e-002
2.528220e+003,1.249427e-002
2.530148e+003,1.268104e-002
2.532077e+003,1.303377e-002
2.534005e+003,1.308923e-002
2.535934e+003,1.310193e-002
2.537862e+003,1.294470e-002
2.539791e+003,1.259041e-002
2.541719e+003,1.248496e-002
2.543648e+003,1.271240e-002
2.545576e+003,1.269705e-002
2.547505e+003,1.273946e-002
2.549433e+003,1.302493e-002
2.551362e+003,1.317587e-002
2.553290e+003,1.315702e-002
2.555219e+003,1.310033e-002
2.557147e+003,1.322632e-002
2.559075e+003,1.325255e-002
2.561004e+003,1.310514e-002
2.562932e+003,1.301800e-002
2.564861e+003,1.297003e-002
2.566789e+003,1.330540e-002
2.568718e+003,1.341174e-002
2.570646e+003,1.315545e-002
2.572575e+003,1.315671e-002
2.574503e+003,1.328060e-002
2.576432e+003,1.324350e-002
2.578360e+003,1.341177e-002
2.580289e+003,1.374263e-002
2.582217e+003,1.379335e-002
2.584146e+003,1.364756e-002
2.586074e+003,1.363980e-002
2.588002e+003,1.359935e-002
2.589931e+003,1.354647e-002
2.591859e+003,1.349468e-002
2.593788e+003,1.351567e-002
2.595716e+003,1.339629e-002
2.597645e+003,1.351799e-002
2.599573e+003,1.365625e-002
2.601502e+003,1.364240e-002
2.603430e+003,1.355385e-002
2.605359e+003,1.366114e-002
2.607287e+003,1.383121e-002
2.609216e+003,1.373192e-002
2.611144e+003,1.382204e-002
2.613073e+003,1.389867e-002
2.615001e+003,1.384910e-002
2.616929e+003,1.391461e-002
2.618858e+003,1.394554e-002
2.620786e+003,1.380436e-002
2.622715e+003,1.375675e-002
2.624643e+003,1.384004e-002
2.626572e+003,1.382974e-002
2.628500e+003,1.418443e-002
2.630429e+003,1.430865e-002
2.632357e+003,1.416338e-002
2.634286e+003,1.403171e-002
2.636214e+003,1.400245e-002
2.638143e+003,1.421113e-002
2.640071e+003,1.429314e-002
2.642000e+003,1.433457e-002
2.643928e+003,1.421939e-002
2.645856e+003,1.423072e-002
2.647785e+003,1.424294e-002
2.649713e+003,1.429252e-002
2.651642e+003,1.440585e-002
2.653570e+003,1.434998e-002
2.655499e+003,1.426513e-002
2.657427e+003,1.431697e-002
2.659356e+003,1.429129e-002
2.661284e+003,1.426979e-002
2.663213e+003,1.429578e-002
2.665141e+003,1.415068e-002
2.667070e+003,1.404214e-002
2.668998e+003,1.426417e-002
2.670927e+003,1.446579e-002
2.672855e+003,1.439139e-002
2.674783e+003,1.437434e-002
2.676712e+003,1.451262e-002
2.678640e+003,1.459153e-002
2.680569e+003,1.469921e-002
2.682497e+003,1.466877e-002
2.684426e+003,1.474596e-002
2.686354e+003,1.493323e-002
2.688283e+003,1.495360e-002
2.690211e+003,1.494921e-002
2.692140e+003,1.469715e-002
2.694068e+003,1.469132e-002
2.695997e+003,1.476080e-002
2.697925e+003,1.462847e-002
2.699854e+003,1.481668e-002
2.701782e+003,1.485848e-002
2.703710e+003,1.478634e-002
2.705639e+003,1.485282e-002
2.707567e+003,1.527791e-002
2.709496e+003,1.526030e-002
2.711424e+003,1.507873e-002
2.713353e+003,1.531628e-002
2.715281e+003,1.547561e-002
2.717210e+003,1.543035e-002
2.719138e+003,1.565989e-002
2.721067e+003,1.561064e-002
2.722995e+003,1.548522e-002
2.724924e+003,1.553614e-002
2.726852e+003,1.585814e-002
2.728781e+003,1.587457e-002
2.730709e+003,1.567143e-002
2.732637e+003,1.581354e-002
2.734566e+003,1.556516e-002
2.736494e+003,1.544113e-002
2.738423e+003,1.561802e-002
2.740351e+003,1.565969e-002
2.742280e+003,1.586285e-002
2.744208e+003,1.598012e-002
2.746137e+003,1.601347e-002
2.748065e+003,1.579907e-002
2.749994e+003,1.570153e-002
2.751922e+003,1.571496e-002
2.753851e+003,1.568737e-002
2.755779e+003,1.567748e-002
2.757708e+003,1.576856e-002
2.759636e+003,1.597947e-002
2.761564e+003,1.622220e-002
2.763493e+003,1.631676e-002
2.765421e+003,1.605679e-002
2.767350e+003,1.618760e-002
2.769278e+003,1.624947e-002
2.771207e+003,1.626922e-002
2.773135e+003,1.649548e-002
2.775064e+003,1.641526e-002
2.776992e+003,1.621312e-002
2.778921e+003,1.626096e-002
2.780849e+003,1.658735e-002
2.782778e+003,1.689869e-002
2.784706e+003,1.713831e-002
2.786635e+003,1.731986e-002
2.788563e+003,1.713693e-002
2.790491e+003,1.700518e-002
2.792420e+003,1.725886e-002
2.794348e+003,1.747678e-002
2.796277e+003,1.759998e-002
2.798205e+003,1.769795e-002
2.800134e+003,1.787430e-002
2.802062e+003,1.812528e-002
2.803991e+003,1.817081e-002
2.805919e+003,1.815133e-002
2.807848e+003,1.840754e-002
2.809776e+003,1.880097e-002
2.811705e+003,1.917897e-002
2.813633e+003,1.933258e-002
2.815562e+003,1.948743e-002
2.817490e+003,1.993082e-002
2.819418e+003,2.075674e-002
2.821347e+003,2.147000e-002
2.823275e+003,2.186541e-002
2.825204e+003,2.198470e-002
2.827132e+003,2.218869e-002
2.829061e+003,2.288142e-002
2.830989e+003,2.399484e-002
2.832918e+003,2.502723e-002
2.834846e+003,2.563523e-002
2.836775e+003,2.638014e-002
2.838703e+003,2.745421e-002
2.840632e+003,2.852225e-002
2.842560e+003,2.933704e-002
2.844489e+003,3.055904e-002
2.846417e+003,3.210314e-002
2.848345e+003,3.301247e-002
2.850274e+003,3.316294e-002
2.852202e+003,3.258739e-002
2.854131e+003,3.152347e-002
2.856059e+003,3.066414e-002
2.857988e+003,3.042863e-002
2.859916e+003,3.052790e-002
2.861845e+003,3.063875e-002
2.863773e+003,3.056871e-002
2.865702e+003,3.055754e-002
2.867630e+003,3.098986e-002
2.869558e+003,3.148274e-002
2.871487e+003,3.153811e-002
2.873415e+003,3.125074e-002
2.875344e+003,3.144063e-002
2.877272e+003,3.193681e-002
2.879201e+003,3.210192e-002
2.881129e+003,3.161497e-002
2.883058e+003,3.144470e-002
2.884986e+003,3.152350e-002
2.886915e+003,3.177533e-002
2.888843e+003,3.235016e-002
2.890771e+003,3.317095e-002
2.892700e+003,3.315943e-002
2.894628e+003,3.298741e-002
2.896557e+003,3.371863e-002
2.898485e+003,3.478012e-002
2.900414e+003,3.522504e-002
2.902342e+003,3.571059e-002
2.904271e+003,3.624916e-002
2.906199e+003,3.674722e-002
2.908128e+003,3.822866e-002
2.910056e+003,3.985065e-002
2.911985e+003,4.155018e-002
2.913913e+003,4.388640e-002
2.915842e+003,4.585017e-002
2.917770e+003,4.625766e-002
2.919698e+003,4.583507e-002
2.921627e+003,4.580793e-002
2.923555e+003,4.524804e-002
2.925484e+003,4.406404e-002
2.927412e+003,4.366460e-002
2.929341e+003,4.330958e-002
2.931269e+003,4.291039e-002
2.933198e+003,4.244658e-002
2.935126e+003,4.179114e-002
2.937055e+003,4.072819e-002
2.938983e+003,3.963218e-002
2.940912e+003,3.868756e-002
2.942840e+003,3.817128e-002
2.944769e+003,3.779251e-002
2.946697e+003,3.735261e-002
2.948625e+003,3.707563e-002
2.950554e+003,3.696778e-002
2.952482e+003,3.700523e-002
2.954411e+003,3.696039e-002
2.956339e+003,3.685220e-002
2.958268e+003,3.668160e-002
2.960196e+003,3.630939e-002
2.962125e+003,3.529407e-002
2.964053e+003,3.466315e-002
2.965982e+003,3.398036e-002
2.967910e+003,3.337149e-002
2.969839e+003,3.210474e-002
2.971767e+003,3.136267e-002
2.973696e+003,3.064483e-002
2.975624e+003,2.963644e-002
2.977552e+003,2.855728e-002
2.979481e+003,2.728726e-002
2.981409e+003,2.639042e-002
2.983338e+003,2.577609e-002
2.985266e+003,2.528047e-002
2.987195e+003,2.484285e-002
2.989123e+003,2.474224e-002
2.991052e+003,2.448826e-002
2.992980e+003,2.378721e-002
2.994909e+003,2.314510e-002
2.996837e+003,2.238062e-002
2.998766e+003,2.227040e-002
3.000694e+003,2.217941e-002
3.002623e+003,2.189193e-002
3.004551e+003,2.152320e-002
3.006479e+003,2.150325e-002
3.008408e+003,2.154628e-002
3.010336e+003,2.143592e-002
3.012265e+003,2.126218e-002
3.014193e+003,2.102900e-002
3.016122e+003,2.090375e-002
3.018050e+003,2.083022e-002
3.019979e+003,2.099026e-002
3.021907e+003,2.127752e-002
3.023836e+003,2.136867e-002
3.025764e+003,2.083790e-002
3.027693e+003,2.071914e-002
3.029621e+003,2.105592e-002
3.031550e+003,2.105877e-002
3.033478e+003,2.030872e-002
3.035406e+003,2.000645e-002
3.037335e+003,2.040643e-002
3.039263e+003,2.055569e-002
3.041192e+003,2.049205e-002
3.043120e+003,2.071861e-002
3.045049e+003,2.075577e-002
3.046977e+003,2.041043e-002
3.048906e+003,2.019523e-002
3.050834e+003,2.018972e-002
3.052763e+003,2.040869e-002
3.054691e+003,2.064654e-002
3.056620e+003,2.076536e-002
3.058548e+003,2.061729e-002
3.060477e+003,2.086491e-002
3.062405e+003,2.072049e-002
3.064333e+003,2.053127e-002
3.066262e+003,2.081673e-002
3.068190e+003,2.081826e-002
3.070119e+003,2.085170e-002
3.072047e+003,2.057785e-002
3.073976e+003,2.096700e-002
3.075904e+003,2.152295e-002
3.077833e+003,2.117311e-002
3.079761e+003,2.079223e-002
3.081690e+003,2.087837e-002
3.083618e+003,2.129757e-002
3.085547e+003,2.088129e-002
3.087475e+003,2.061329e-002
3.089404e+003,2.084016e-002
3.091332e+003,2.084607e-002
3.093260e+003,2.106458e-002
3.095189e+003,2.132607e-002
3.097117e+003,2.135931e-002
3.099046e+003,2.178392e-002
3.100974e+003,2.198645e-002
3.102903e+003,2.171042e-002
3.104831e+003,2.158974e-002
3.106760e+003,2.212167e-002
3.108688e+003,2.205585e-002
3.110617e+003,2.162286e-002
3.112545e+003,2.163867e-002
3.114474e+003,2.208192e-002
3.116402e+003,2.214384e-002
3.118331e+003,2.230510e-002
3.120259e+003,2.247308e-002
3.122188e+003,2.272963e-002
3.124116e+003,2.248435e-002
3.126044e+003,2.310239e-002
3.127973e+003,2.345782e-002
3.129901e+003,2.310463e-002
3.131830e+003,2.313182e-002
3.133758e+003,2.343337e-002
3.135687e+003,2.330634e-002
3.137615e+003,2.354757e-002
3.139544e+003,2.341924e-002
3.141472e+003,2.317634e-002
3.143401e+003,2.332064e-002
3.145329e+003,2.332760e-002
3.147258e+003,2.374854e-002
3.149186e+003,2.417269e-002
3.151115e+003,2.455662e-002
3.153043e+003,2.506250e-002
3.154971e+003,2.499406e-002
3.156900e+003,2.489440e-002
3.158828e+003,2.478093e-002
3.160757e+003,2.483370e-002
3.162685e+003,2.512074e-002
3.164614e+003,2.549669e-002
3.166542e+003,2.570141e-002
3.168471e+003,2.595150e-002
3.170399e+003,2.584315e-002
3.172328e+003,2.570089e-002
3.174256e+003,2.575211e-002
3.176185e+003,2.559618e-002
3.178113e+003,2.549817e-002
3.180042e+003,2.580264e-002
3.181970e+003,2.654766e-002
3.183898e+003,2.753908e-002
3.185827e+003,2.792034e-002
3.187755e+003,2.736535e-002
3.189684e+003,2.699800e-002
3.191612e+003,2.685093e-002
3.193541e+003,2.723854e-002
3.195469e+003,2.774667e-002
3.197398e+003,2.820760e-002
3.199326e+003,2.838679e-002
3.201255e+003,2.821265e-002
3.203183e+003,2.823015e-002
3.205112e+003,2.862661e-002
3.207040e+003,2.876349e-002
3.208969e+003,2.879249e-002
3.210897e+003,2.906508e-002
3.212825e+003,2.916525e-002
3.214754e+003,2.904004e-002
3.216682e+003,2.918155e-002
3.218611e+003,2.931783e-002
3.220539e+003,2.948443e-002
3.222468e+003,2.999541e-002
3.224396e+003,3.039511e-002
3.226325e+003,3.002563e-002
3.228253e+003,2.985392e-002
3.230182e+003,2.997475e-002
3.232110e+003,3.006369e-002
3.234039e+003,3.014544e-002
3.235967e+003,3.059022e-002
3.237896e+003,3.132734e-002
3.239824e+003,3.131388e-002
3.241752e+003,3.070538e-002
3.243681e+003,3.061518e-002
3.245609e+003,3.062929e-002
3.247538e+003,3.133945e-002
3.249466e+003,3.169031e-002
3.251395e+003,3.173141e-002
3.253323e+003,3.184955e-002
3.255252e+003,3.218812e-002
3.257180e+003,3.223591e-002
3.259109e+003,3.210442e-002
3.261037e+003,3.176046e-002
3.262966e+003,3.196894e-002
3.264894e+003,3.220882e-002
3.266823e+003,3.233313e-002
3.268751e+003,3.240099e-002
3.270679e+003,3.253932e-002
3.272608e+003,3.282986e-002
3.274536e+003,3.297508e-002
3.276465e+003,3.305513e-002
3.278393e+003,3.330773e-002
3.280322e+003,3.316651e-002
3.282250e+003,3.349069e-002
3.284179e+003,3.362485e-002
3.286107e+003,3.378000e-002
3.288036e+003,3.408840e-002
3.289964e+003,3.374724e-002
3.291893e+003,3.446858e-002
3.293821e+003,3.540553e-002
3.295750e+003,3.502903e-002
3.297678e+003,3.500148e-002
3.299606e+003,3.484643e-002
3.301535e+003,3.414421e-002
3.303463e+003,3.401813e-002
3.305392e+003,3.438493e-002
3.307320e+003,3.505503e-002
3.309249e+003,3.564336e-002
3.311177e+003,3.550455e-002
3.313106e+003,3.594293e-002
3.315034e+003,3.655471e-002
3.316963e+003,3.636426e-002
3.318891e+003,3.566127e-002
3.320820e+003,3.548175e-002
3.322748e+003,3.564426e-002
3.324677e+003,3.557478e-002
3.326605e+003,3.606853e-002
3.328533e+003,3.592238e-002
3.330462e+003,3.587221e-002
3.332390e+003,3.657940e-002
3.334319e+003,3.713063e-002
3.336247e+003,3.708271e-002
3.338176e+003,3.675638e-002
3.340104e+003,3.646727e-002
3.342033e+003,3.661544e-002
3.343961e+003,3.707433e-002
3.345890e+003,3.708866e-002
3.347818e+003,3.700314e-002
3.349747e+003,3.700368e-002
3.351675e+003,3.727524e-002
3.353604e+003,3.705329e-002
3.355532e+003,3.682854e-002
3.357460e+003,3.667309e-002
3.359389e+003,3.666782e-002
3.361317e+003,3.677985e-002
3.363246e+003,3.706491e-002
3.365174e+003,3.744879e-002
3.367103e+003,3.740534e-002
3.369031e+003,3.735334e-002
3.370960e+003,3.760745e-002
3.372888e+003,3.718799e-002
3.374817e+003,3.757984e-002
3.376745e+003,3.766360e-002
3.378674e+003,3.690284e-002
3.380602e+003,3.744471e-002
3.382531e+003,3.784363e-002
3.384459e+003,3.744052e-002
3.386387e+003,3.679002e-002
3.388316e+003,3.615823e-002
3.390244e+003,3.631047e-002
3.392173e+003,3.684502e-002
3.394101e+003,3.717034e-002
3.396030e+003,3.684333e-002
3.397958e+003,3.608614e-002
3.399887e+003,3.575405e-002
3.401815e+003,3.554194e-002
3.403744e+003,3.647635e-002
3.405672e+003,3.691504e-002
3.407601e+003,3.609813e-002
3.409529e+003,3.518979e-002
3.411458e+003,3.535664e-002
3.413386e+003,3.635503e-002
3.415314e+003,3.608736e-002
3.417243e+003,3.507892e-002
3.419171e+003,3.490872e-002
3.421100e+003,3.532749e-002
3.423028e+003,3.534881e-002
3.424957e+003,3.489910e-002
3.426885e+003,3.461632e-002
3.428814e+003,3.403321e-002
3.430742e+003,3.441675e-002
3.432671e+003,3.462138e-002
3.434599e+003,3.418945e-002
3.436528e+003,3.368246e-002
3.438456e+003,3.321354e-002
3.440385e+003,3.330695e-002
3.442313e+003,3.348095e-002
3.444241e+003,3.306721e-002
3.446170e+003,3.314345e-002
3.448098e+003,3.338820e-002
3.450027e+003,3.277462e-002
3.451955e+003,3.206018e-002
3.453884e+003,3.178024e-002
3.455812e+003,3.110087e-002
3.457741e+003,3.086060e-002
3.459669e+003,3.152853e-002
3.461598e+003,3.107364e-002
3.463526e+003,3.013322e-002
3.465455e+003,2.965376e-002
3.467383e+003,2.918399e-002
3.469312e+003,2.925494e-002
3.471240e+003,2.879348e-002
3.473168e+003,2.867984e-002
3.475097e+003,2.862976e-002
3.477025e+003,2.825102e-002
3.478954e+003,2.810217e-002
3.480882e+003,2.717310e-002
3.482811e+003,2.697434e-002
3.484739e+003,2.721984e-002
3.486668e+003,2.657450e-002
3.488596e+003,2.613638e-002
3.490525e+003,2.589164e-002
3.492453e+003,2.529642e-002
3.494382e+003,2.428466e-002
3.496310e+003,2.455305e-002
3.498239e+003,2.437206e-002
3.500167e+003,2.391347e-002
3.502095e+003,2.376345e-002
3.504024e+003,2.353644e-002
3.505952e+003,2.253199e-002
3.507881e+003,2.219426e-002
3.509809e+003,2.217418e-002
3.511738e+003,2.176072e-002
3.513666e+003,2.089634e-002
3.515595e+003,2.015042e-002
3.517523e+003,2.044849e-002
3.519452e+003,2.072000e-002
3.521380e+003,2.035587e-002
3.523309e+003,1.938115e-002
3.525237e+003,1.888219e-002
3.527166e+003,1.850504e-002
3.529094e+003,1.724828e-002
3.531022e+003,1.682611e-002
3.532951e+003,1.667600e-002
3.534879e+003,1.621177e-002
3.536808e+003,1.596166e-002
3.538736e+003,1.602474e-002
3.540665e+003,1.620782e-002
3.542593e+003,1.597686e-002
3.544522e+003,1.461747e-002
3.546450e+003,1.347001e-002
3.548379e+003,1.343040e-002
3.550307e+003,1.389782e-002
3.552236e+003,1.397668e-002
3.554164e+003,1.306495e-002
3.556093e+003,1.223221e-002
3.558021e+003,1.179099e-002
3.559949e+003,1.142280e-002
3.561878e+003,1.135756e-002
3.563806e+003,1.116442e-002
3.565735e+003,1.102482e-002
3.567663e+003,1.032581e-002
3.569592e+003,9.778269e-003
3.571520e+003,9.312280e-003
3.573449e+003,9.345321e-003
3.575377e+003,9.193746e-003
3.577306e+003,9.259169e-003
3.579234e+003,8.525997e-003
3.581163e+003,7.271227e-003
3.583091e+003,7.078678e-003
3.585020e+003,7.697389e-003
3.586948e+003,8.070058e-003
3.588876e+003,8.474131e-003
3.590805e+003,8.606359e-003
3.592733e+003,7.999718e-003
3.594662e+003,7.286794e-003
3.596590e+003,7.490223e-003
3.598519e+003,7.671859e-003
3.600447e+003,7.193706e-003
3.602376e+003,7.183431e-003
3.604304e+003,7.770177e-003
3.606233e+003,7.551546e-003
3.608161e+003,7.085043e-003
3.610090e+003,7.312133e-003
3.612018e+003,7.644172e-003
3.613947e+003,7.173056e-003
3.615875e+003,6.600538e-003
3.617803e+003,6.594180e-003
3.619732e+003,6.555057e-003
3.621660e+003,6.700734e-003
3.623589e+003,6.857736e-003
3.625517e+003,7.020755e-003
3.627446e+003,6.926714e-003
3.629374e+003,6.827139e-003
3.631303e+003,6.525221e-003
3.633231e+003,6.626914e-003
3.635160e+003,6.830303e-003
3.637088e+003,7.207080e-003
3.639017e+003,7.379531e-003
3.640945e+003,6.986409e-003
3.642874e+003,6.629471e-003
3.644802e+003,6.755956e-003
3.646730e+003,7.146647e-003
3.648659e+003,7.121452e-003
3.650587e+003,6.938935e-003
3.652516e+003,7.276922e-003
3.654444e+003,7.565403e-003
3.656373e+003,6.967553e-003
3.658301e+003,6.667826e-003
3.660230e+003,7.073559e-003
3.662158e+003,7.266813e-003
3.664087e+003,7.181242e-003
3.666015e+003,7.519316e-003
3.667944e+003,7.407370e-003
3.669872e+003,6.991022e-003
3.671801e+003,7.075849e-003
3.673729e+003,7.147927e-003
3.675657e+003,7.173089e-003
3.677586e+003,6.982907e-003
3.679514e+003,6.572146e-003
3.681443e+003,6.780490e-003
3.683371e+003,6.850802e-003
3.685300e+003,6.916748e-003
3.687228e+003,7.476806e-003
3.689157e+003,7.739516e-003
3.691085e+003,7.338552e-003
3.693014e+003,7.399450e-003
3.694942e+003,7.778205e-003
3.696871e+003,8.018415e-003
3.698799e+003,7.946396e-003
3.700728e+003,7.597873e-003
3.702656e+003,7.338080e-003
3.704584e+003,7.225339e-003
3.706513e+003,8.016762e-003
3.708441e+003,8.625827e-003
3.710370e+003,8.050042e-003
3.712298e+003,7.350010e-003
3.714227e+003,7.260614e-003
3.716155e+003,7.378959e-003
3.718084e+003,7.544534e-003
3.720012e+003,7.237064e-003
3.721941e+003,7.664675e-003
3.723869e+003,7.868922e-003
3.725798e+003,7.486144e-003
3.727726e+003,7.570528e-003
3.729655e+003,7.897534e-003
3.731583e+003,8.158540e-003
3.733511e+003,8.023883e-003
3.735440e+003,8.077249e-003
3.737368e+003,8.040051e-003
3.739297e+003,7.677727e-003
3.741225e+003,7.339799e-003
3.743154e+003,6.967318e-003
3.745082e+003,7.159682e-003
3.747011e+003,7.203610e-003
3.748939e+003,6.912001e-003
3.750868e+003,7.266443e-003
3.752796e+003,7.572282e-003
3.754725e+003,7.646701e-003
3.756653e+003,7.985577e-003
3.758582e+003,7.749635e-003
3.760510e+003,7.673983e-003
3.762438e+003,7.448559e-003
3.764367e+003,8.064320e-003
3.766295e+003,8.597031e-003
3.768224e+003,8.469536e-003
3.770152e+003,8.052506e-003
3.772081e+003,8.046431e-003
3.774009e+003,8.325427e-003
3.775938e+003,8.404772e-003
3.777866e+003,8.429028e-003
3.779795e+003,8.478523e-003
3.781723e+003,8.062565e-003
3.783652e+003,7.788865e-003
3.785580e+003,8.056894e-003
3.787509e+003,8.267641e-003
3.789437e+003,8.517651e-003
3.791365e+003,8.852202e-003
3.793294e+003,8.493255e-003
3.795222e+003,8.226949e-003
3.797151e+003,8.121032e-003
3.799079e+003,7.917409e-003
3.801008e+003,8.241300e-003
3.802936e+003,8.736160e-003
3.804865e+003,8.539244e-003
3.806793e+003,7.708856e-003
3.808722e+003,7.813053e-003
3.810650e+003,8.578849e-003
3.812579e+003,8.687953e-003
3.814507e+003,8.611936e-003
3.816436e+003,8.942129e-003
3.818364e+003,9.093346e-003
3.820292e+003,8.586014e-003
3.822221e+003,8.045452e-003
3.824149e+003,8.442947e-003
3.826078e+003,8.440210e-003
3.828006e+003,7.972044e-003
3.829935e+003,8.165800e-003
3.831863e+003,8.585101e-003
3.833792e+003,8.472881e-003
3.835720e+003,8.240456e-003
3.837649e+003,8.206992e-003
3.839577e+003,8.284695e-003
3.841506e+003,8.250587e-003
3.843434e+003,8.440954e-003
3.845363e+003,8.348799e-003
3.847291e+003,8.499844e-003
3.849219e+003,8.532147e-003
3.851148e+003,8.154861e-003
3.853076e+003,7.913360e-003
3.855005e+003,9.011879e-003
3.856933e+003,9.149042e-003
3.858862e+003,8.696033e-003
3.860790e+003,8.839116e-003
3.862719e+003,9.308286e-003
3.864647e+003,9.410192e-003
3.866576e+003,8.937428e-003
3.868504e+003,8.731224e-003
3.870433e+003,8.757154e-003
3.872361e+003,9.219434e-003
3.874290e+003,9.438330e-003
3.876218e+003,8.839386e-003
3.878146e+003,8.538061e-003
3.880075e+003,9.136657e-003
3.882003e+003,9.392856e-003
3.883932e+003,8.798099e-003
3.885860e+003,8.495958e-003
3.887789e+003,8.957045e-003
3.889717e+003,8.845439e-003
3.891646e+003,8.647830e-003
3.893574e+003,8.819469e-003
3.895503e+003,8.545664e-003
3.897431e+003,8.622785e-003
3.899360e+003,8.760536e-003
3.901288e+003,8.846047e-003
3.903217e+003,9.459021e-003
3.905145e+003,9.931913e-003
3.907073e+003,1.002539e-002
3.909002e+003,9.430746e-003
3.910930e+003,9.150328e-003
3.912859e+003,8.815986e-003
3.914787e+003,8.729398e-003
3.916716e+003,8.588987e-003
3.918644e+003,8.022904e-003
3.920573e+003,8.145171e-003
3.922501e+003,8.226949e-003
3.924430e+003,8.465042e-003
3.926358e+003,9.192156e-003
3.928287e+003,8.750190e-003
3.930215e+003,9.091857e-003
3.932144e+003,8.872695e-003
3.934072e+003,8.699751e-003
3.936000e+003,9.363536e-003
3.937929e+003,9.208502e-003
3.939857e+003,9.098657e-003
3.941786e+003,9.301177e-003
3.943714e+003,1.018712e-002
3.945643e+003,1.028086e-002
3.947571e+003,9.616041e-003
3.949500e+003,8.991683e-003
3.951428e+003,8.974872e-003
3.953357e+003,9.255582e-003
3.955285e+003,9.492885e-003
3.957214e+003,9.443646e-003
3.959142e+003,9.371865e-003
3.961071e+003,9.153339e-003
3.962999e+003,8.813146e-003
3.964927e+003,8.926537e-003
3.966856e+003,8.677001e-003
3.968784e+003,9.034138e-003
3.970713e+003,9.301956e-003
3.972641e+003,8.864004e-003
3.974570e+003,8.700528e-003
3.976498e+003,9.282729e-003
3.978427e+003,9.921336e-003
3.980355e+003,9.532206e-003
3.982284e+003,9.188433e-003
3.984212e+003,9.694809e-003
3.986141e+003,9.893640e-003
3.988069e+003,9.658556e-003
3.989998e+003,9.451164e-003
3.991926e+003,9.114662e-003
3.993854e+003,9.215271e-003
3.995783e+003,8.755329e-003
3.997711e+003,8.806147e-003
3.999640e+003,9.057685e-003
4.001568e+003,0.000000e+000
