3.991927e+002,0.000000e+000
4.011211e+002,0.000000e+000
4.030496e+002,0.000000e+000
4.049781e+002,0.000000e+000
4.069065e+002,0.000000e+000
4.088350e+002,0.000000e+000
4.107635e+002,0.000000e+000
4.126919e+002,0.000000e+000
4.146204e+002,0.000000e+000
4.165489e+002,0.000000e+000
4.184773e+002,0.000000e+000
4.204058e+002,0.000000e+000
4.223343e+002,0.000000e+000
4.242627e+002,0.000000e+000
4.261912e+002,0.000000e+000
4.281197e+002,0.000000e+000
4.300481e+002,0.000000e+000
4.319766e+002,0.000000e+000
4.339051e+002,0.000000e+000
4.358335e+002,0.000000e+000
4.377620e+002,0.000000e+000
4.396905e+002,0.000000e+000
4.416189e+002,0.000000e+000
4.435474e+002,0.000000e+000
4.454759e+002,0.000000e+000
4.474043e+002,0.000000e+000
4.493328e+002,0.000000e+000
4.512613e+002,0.000000e+000
4.531897e+002,0.000000e+000
4.551182e+002,0.000000e+000
4.570467e+002,0.000000e+000
4.589751e+002,0.000000e+000
4.609036e+002,0.000000e+000
4.628321e+002,0.000000e+000
4.647605e+002,0.000000e+000
4.666890e+002,0.000000e+000
4.686175e+002,0.000000e+000
4.705459e+002,0.000000e+000
4.724744e+002,0.000000e+000
4.744029e+002,0.000000e+000
4.763313e+002,0.000000e+000
4.782598e+002,0.000000e+000
4.801883e+002,0.000000e+000
4.821167e+002,0.000000e+000
4.840452e+002,0.000000e+000
4.859737e+002,0.000000e+000
4.879021e+002,0.000000e+000
4.898306e+002,0.000000e+000
4.917591e+002,0.000000e+000
4.936875e+002,0.000000e+000
4.956160e+002,0.000000e+000
4.975445e+002,0.000000e+000
4.994729e+002,0.000000e+000
5.014014e+002,0.000000e+000
5.033299e+002,0.000000e+000
5.052583e+002,0.000000e+000
5.071868e+002,0.000000e+000
5.091153e+002,0.000000e+000
5.110437e+002,0.000000e+000
5.129722e+002,0.000000e+000
5.149006e+002,0.000000e+000
5.168291e+002,0.000000e+000
5.187576e+002,0.000000e+000
5.206860e+002,0.000000e+000
5.226145e+002,0.000000e+000
5.245430e+002,0.000000e+000
5.264714e+002,0.000000e+000
5.283999e+002,0.000000e+000
5.303284e+002,0.000000e+000
5.322568e+002,0.000000e+000
5.341853e+002,0.000000e+000
5.361138e+002,0.000000e+000
5.380422e+002,0.000000e+000
5.399707e+002,0.000000e+000
5.418992e+002,0.000000e+000
5.438276e+002,0.000000e+000
5.457561e+002,0.000000e+000
5.476846e+002,0.000000e+000
5.496130e+002,0.000000e+000
5.515415e+002,0.000000e+000
5.534700e+002,0.000000e+000
5.553984e+002,0.000000e+000
5.573269e+002,0.000000e+000
5.592554e+002,0.000000e+000
5.611838e+002,0.000000e+000
5.631123e+002,0.000000e+000
5.650408e+002,0.000000e+000
5.669692e+002,0.000000e+000
5.688977e+002,0.000000e+000
5.708262e+002,0.000000e+000
5.727546e+002,0.000000e+000
5.746831e+002,0.000000e+000
5.766116e+002,0.000000e+000
5.785400e+002,0.000000e+000
5.804685e+002,0.000000e+000
5.823970e+002,0.000000e+000
5.843254e+002,0.000000e+000
5.862539e+002,0.000000e+000
5.881824e+002,0.000000e+000
5.901108e+002,0.000000e+000
5.920393e+002,0.000000e+000
5.939678e+002,0.000000e+000
5.958962e+002,0.000000e+000
5.978247e+002,0.000000e+000
5.997532e+002,0.000000e+000
6.016816e+002,0.000000e+000
6.036101e+002,0.000000e+000
6.055386e+002,0.000000e+000
6.074670e+002,0.000000e+000
6.093955e+002,0.000000e+000
6.113240e+002,0.000000e+000
6.132524e+002,0.000000e+000
6.151809e+002,0.000000e+000
6.171094e+002,0.000000e+000
6.190378e+002,0.000000e+000
6.209663e+002,0.000000e+000
6.228948e+002,0.000000e+000
6.248232e+002,0.000000e+000
6.267517e+002,0.000000e+000
6.286802e+002,0.000000e+000
6.306086e+002,0.000000e+000
6.325371e+002,0.000000e+000
6.344656e+002,0.000000e+000
6.363940e+002,0.000000e+000
6.383225e+002,0.000000e+000
6.402510e+002,0.000000e+000
6.421794e+002,0.000000e+000
6.441079e+002,0.000000e+000
6.460364e+002,0.000000e+000
6.479648e+002,0.000000e+000
6.498933e+002,1.521361e-001
6.518218e+002,1.509214e-001
6.537502e+002,1.498353e-001
6.556787e+002,1.472113e-001
6.576072e+002,1.455996e-001
6.595356e+002,1.446288e-001
6.614641e+002,1.439971e-001
6.633926e+002,1.424785e-001
6.653210e+002,1.408583e-001
6.672495e+002,1.405300e-001
6.691780e+002,1.399197e-001
6.711064e+002,1.388352e-001
6.730349e+002,1.383294e-001
6.749634e+002,1.362091e-001
6.768918e+002,1.335944e-001
6.788203e+002,1.327731e-001
6.807488e+002,1.313087e-001
6.826772e+002,1.307306e-001
6.846057e+002,1.313383e-001
6.865342e+002,1.308398e-001
6.884626e+002,1.303542e-001
6.903911e+002,1.297662e-001
6.923196e+002,1.292182e-001
6.942480e+002,1.289285e-001
6.961765e+002,1.282964e-001
6.981050e+002,1.264147e-001
7.000334e+002,1.253114e-001
7.019619e+002,1.249808e-001
7.038904e+002,1.239785e-001
7.058188e+002,1.233778e-001
7.077473e+002,1.229332e-001
7.096758e+002,1.223638e-001
7.116042e+002,1.220837e-001
7.135327e+002,1.216747e-001
7.154612e+002,1.209969e-001
7.173896e+002,1.210244e-001
7.193181e+002,1.219726e-001
7.212466e+002,1.226402e-001
7.231750e+002,1.231849e-001
7.251035e+002,1.239328e-001
7.270320e+002,1.246331e-001
7.289604e+002,1.246853e-001
7.308889e+002,1.254309e-001
7.328174e+002,1.265813e-001
7.347458e+002,1.261842e-001
7.366743e+002,1.264640e-001
7.386028e+002,1.270875e-001
7.405313e+002,1.280724e-001
7.424597e+002,1.293167e-001
7.443882e+002,1.297303e-001
7.463167e+002,1.302478e-001
7.482451e+002,1.305754e-001
7.501736e+002,1.311014e-001
7.521021e+002,1.306089e-001
7.540305e+002,1.300806e-001
7.559590e+002,1.305127e-001
7.578875e+002,1.301344e-001
7.598159e+002,1.279016e-001
7.617444e+002,1.264252e-001
7.636729e+002,1.258942e-001
7.656013e+002,1.254953e-001
7.675298e+002,1.249312e-001
7.694583e+002,1.241974e-001
7.713867e+002,1.233696e-001
7.733152e+002,1.238910e-001
7.752437e+002,1.237818e-001
7.771721e+002,1.237506e-001
7.791006e+002,1.252345e-001
7.810291e+002,1.259619e-001
7.829575e+002,1.252133e-001
7.848860e+002,1.242735e-001
7.868145e+002,1.243978e-001
7.887429e+002,1.246154e-001
7.906714e+002,1.240822e-001
7.925999e+002,1.238973e-001
7.945283e+002,1.242898e-001
7.964568e+002,1.233207e-001
7.983853e+002,1.209806e-001
8.003137e+002,1.212077e-001
8.022422e+002,1.230421e-001
8.041707e+002,1.239801e-001
8.060991e+002,1.255421e-001
8.080276e+002,1.284757e-001
8.099561e+002,1.299026e-001
8.118845e+002,1.314498e-001
8.138130e+002,1.330798e-001
8.157415e+002,1.337988e-001
8.176699e+002,1.329084e-001
8.195984e+002,1.313851e-001
8.215269e+002,1.304403e-001
8.234553e+002,1.295649e-001
8.253838e+002,1.287229e-001
8.273123e+002,1.277231e-001
8.292407e+002,1.259610e-001
8.311692e+002,1.240340e-001
8.330977e+002,1.218862e-001
8.350261e+002,1.195393e-001
8.369546e+002,1.184748e-001
8.388831e+002,1.183621e-001
8.408115e+002,1.181831e-001
8.427400e+002,1.187284e-001
8.446685e+002,1.198786e-001
8.465969e+002,1.212787e-001
8.485254e+002,1.235263e-001
8.504539e+002,1.258399e-001
8.523823e+002,1.260789e-001
8.543108e+002,1.256480e-001
8.562393e+002,1.250237e-001
8.581677e+002,1.246681e-001
8.600962e+002,1.243696e-001
8.620247e+002,1.227853e-001
8.639531e+002,1.210395e-001
8.658816e+002,1.191345e-001
8.678101e+002,1.180632e-001
8.697385e+002,1.186425e-001
8.716670e+002,1.196866e-001
8.735955e+002,1.205972e-001
8.755239e+002,1.205682e-001
8.774524e+002,1.190000e-001
8.793809e+002,1.179637e-001
8.813093e+002,1.178622e-001
8.832378e+002,1.177297e-001
8.851663e+002,1.175524e-001
8.870947e+002,1.172692e-001
8.890232e+002,1.170037e-001
8.909517e+002,1.160876e-001
8.928801e+002,1.153235e-001
8.948086e+002,1.144877e-001
8.967371e+002,1.134656e-001
8.986655e+002,1.129467e-001
9.005940e+002,1.139613e-001
9.025225e+002,1.159122e-001
9.044509e+002,1.163664e-001
9.063794e+002,1.168501e-001
9.083079e+002,1.185273e-001
9.102363e+002,1.204758e-001
9.121648e+002,1.213923e-001
9.140933e+002,1.221649e-001
9.160217e+002,1.228418e-001
9.179502e+002,1.227008e-001
9.198787e+002,1.224580e-001
9.218071e+002,1.227528e-001
9.237356e+002,1.229699e-001
9.256641e+002,1.228244e-001
9.275925e+002,1.234283e-001
9.295210e+002,1.234412e-001
9.314495e+002,1.224117e-001
9.333779e+002,1.220695e-001
9.353064e+002,1.224880e-001
9.372349e+002,1.227111e-001
9.391633e+002,1.225507e-001
9.410918e+002,1.229974e-001
9.430203e+002,1.243894e-001
9.449487e+002,1.257919e-001
9.468772e+002,1.260135e-001
9.488057e+002,1.266043e-001
9.507341e+002,1.279857e-001
9.526626e+002,1.293554e-001
9.545911e+002,1.301542e-001
9.565195e+002,1.308126e-001
9.584480e+002,1.318882e-001
9.603765e+002,1.329755e-001
9.623049e+002,1.341338e-001
9.642334e+002,1.357125e-001
9.661619e+002,1.373752e-001
9.680903e+002,1.382700e-001
9.700188e+002,1.385933e-001
9.719473e+002,1.395287e-001
9.738757e+002,1.399775e-001
9.758042e+002,1.404937e-001
9.777327e+002,1.414409e-001
9.796611e+002,1.423302e-001
9.815896e+002,1.429694e-001
9.835181e+002,1.439159e-001
9.854465e+002,1.456029e-001
9.873750e+002,1.472923e-001
9.893035e+002,1.491614e-001
9.912319e+002,1.507987e-001
9.931604e+002,1.520799e-001
9.950889e+002,1.531926e-001
9.970173e+002,1.544913e-001
9.989458e+002,1.554986e-001
1.000874e+003,1.568040e-001
1.002803e+003,1.588908e-001
1.004731e+003,1.611880e-001
1.006660e+003,1.647968e-001
1.008588e+003,1.687915e-001
1.010517e+003,1.719231e-001
1.012445e+003,1.743823e-001
1.014374e+003,1.770249e-001
1.016302e+003,1.805556e-001
1.018230e+003,1.838948e-001
1.020159e+003,1.881170e-001
1.022087e+003,1.926898e-001
1.024016e+003,1.962013e-001
1.025944e+003,1.999025e-001
1.027873e+003,2.038221e-001
1.029801e+003,2.061930e-001
1.031730e+003,2.059590e-001
1.033658e+003,2.040201e-001
1.035587e+003,1.996962e-001
1.037515e+003,1.931125e-001
1.039444e+003,1.865934e-001
1.041372e+003,1.814901e-001
1.043301e+003,1.774488e-001
1.045229e+003,1.746383e-001
1.047157e+003,1.734223e-001
1.049086e+003,1.712605e-001
1.051014e+003,1.694639e-001
1.052943e+003,1.684479e-001
1.054871e+003,1.669870e-001
1.056800e+003,1.648421e-001
1.058728e+003,1.632726e-001
1.060657e+003,1.620798e-001
1.062585e+003,1.610176e-001
1.064514e+003,1.604208e-001
1.066442e+003,1.603125e-001
1.068371e+003,1.613871e-001
1.070299e+003,1.623315e-001
1.072228e+003,1.625533e-001
1.074156e+003,1.626758e-001
1.076084e+003,1.624069e-001
1.078013e+003,1.614389e-001
1.079941e+003,1.603809e-001
1.081870e+003,1.597912e-001
1.083798e+003,1.601335e-001
1.085727e+003,1.595501e-001
1.087655e+003,1.586076e-001
1.089584e+003,1.587879e-001
1.091512e+003,1.585445e-001
1.093441e+003,1.575889e-001
1.095369e+003,1.559170e-001
1.097298e+003,1.549895e-001
1.099226e+003,1.542987e-001
1.101155e+003,1.538099e-001
1.103083e+003,1.536987e-001
1.105011e+003,1.550045e-001
1.106940e+003,1.568384e-001
1.108868e+003,1.586194e-001
1.110797e+003,1.599626e-001
1.112725e+003,1.595495e-001
1.114654e+003,1.601514e-001
1.116582e+003,1.610347e-001
1.118511e+003,1.612721e-001
1.120439e+003,1.605148e-001
1.122368e+003,1.594338e-001
1.124296e+003,1.572337e-001
1.126225e+003,1.536629e-001
1.128153e+003,1.495157e-001
1.130082e+003,1.459625e-001
1.132010e+003,1.428006e-001
1.133938e+003,1.403238e-001
1.135867e+003,1.397207e-001
1.137795e+003,1.398081e-001
1.139724e+003,1.398049e-001
1.141652e+003,1.406104e-001
1.143581e+003,1.417752e-001
1.145509e+003,1.420200e-001
1.147438e+003,1.429238e-001
1.149366e+003,1.446492e-001
1.151295e+003,1.450252e-001
1.153223e+003,1.439566e-001
1.155152e+003,1.416675e-001
1.157080e+003,1.388499e-001
1.159009e+003,1.365973e-001
1.160937e+003,1.343181e-001
1.162865e+003,1.326734e-001
1.164794e+003,1.314233e-001
1.166722e+003,1.307602e-001
1.168651e+003,1.313526e-001
1.170579e+003,1.320868e-001
1.172508e+003,1.322984e-001
1.174436e+003,1.333126e-001
1.176365e+003,1.349890e-001
1.178293e+003,1.362385e-001
1.180222e+003,1.371582e-001
1.182150e+003,1.384564e-001
1.184079e+003,1.401750e-001
1.186007e+003,1.420898e-001
1.187936e+003,1.434551e-001
1.189864e+003,1.446839e-001
1.191792e+003,1.457211e-001
1.193721e+003,1.472038e-001
1.195649e+003,1.489626e-001
1.197578e+003,1.506887e-001
1.199506e+003,1.526384e-001
1.201435e+003,1.543387e-001
1.203363e+003,1.553258e-001
1.205292e+003,1.561279e-001
1.207220e+003,1.567526e-001
1.209149e+003,1.563921e-001
1.211077e+003,1.550846e-001
1.213006e+003,1.536382e-001
1.214934e+003,1.525065e-001
1.216863e+003,1.512971e-001
1.218791e+003,1.502680e-001
1.220719e+003,1.496191e-001
1.222648e+003,1.490280e-001
1.224576e+003,1.483805e-001
1.226505e+003,1.483492e-001
1.228433e+003,1.485419e-001
1.230362e+003,1.487897e-001
1.232290e+003,1.492112e-001
1.234219e+003,1.488968e-001
1.236147e+003,1.477715e-001
1.238076e+003,1.459619e-001
1.240004e+003,1.437038e-001
1.241933e+003,1.416403e-001
1.243861e+003,1.398786e-001
1.245790e+003,1.384327e-001
1.247718e+003,1.373640e-001
1.249646e+003,1.370414e-001
1.251575e+003,1.375649e-001
1.253503e+003,1.384230e-001
1.255432e+003,1.399342e-001
1.257360e+003,1.418014e-001
1.259289e+003,1.431570e-001
1.261217e+003,1.444582e-001
1.263146e+003,1.459376e-001
1.265074e+003,1.467193e-001
1.267003e+003,1.470137e-001
1.268931e+003,1.470961e-001
1.270860e+003,1.458745e-001
1.272788e+003,1.432804e-001
1.274717e+003,1.394886e-001
1.276645e+003,1.348834e-001
1.278573e+003,1.303328e-001
1.280502e+003,1.259433e-001
1.282430e+003,1.217794e-001
1.284359e+003,1.176836e-001
1.286287e+003,1.138411e-001
1.288216e+003,1.102349e-001
1.290144e+003,1.066233e-001
1.292073e+003,1.032308e-001
1.294001e+003,1.001249e-001
1.295930e+003,9.711069e-002
1.297858e+003,9.431741e-002
1.299787e+003,9.221861e-002
1.301715e+003,9.037177e-002
1.303644e+003,8.804088e-002
1.305572e+003,8.616085e-002
1.307500e+003,8.504473e-002
1.309429e+003,8.394264e-002
1.311357e+003,8.293645e-002
1.313286e+003,8.197729e-002
1.315214e+003,8.108357e-002
1.317143e+003,8.050091e-002
1.319071e+003,7.974158e-002
1.321000e+003,7.903967e-002
1.322928e+003,7.897059e-002
1.324857e+003,7.887053e-002
1.326785e+003,7.863653e-002
1.328714e+003,7.853901e-002
1.330642e+003,7.844386e-002
1.332571e+003,7.810834e-002
1.334499e+003,7.780840e-002
1.336427e+003,7.799289e-002
1.338356e+003,7.785786e-002
1.340284e+003,7.803211e-002
1.342213e+003,7.901964e-002
1.344141e+003,8.000363e-002
1.346070e+003,8.112115e-002
1.347998e+003,8.257432e-002
1.349927e+003,8.416600e-002
1.351855e+003,8.536141e-002
1.353784e+003,8.680935e-002
1.355712e+003,8.810513e-002
1.357641e+003,8.899959e-002
1.359569e+003,8.966175e-002
1.361498e+003,8.986864e-002
1.363426e+003,8.988417e-002
1.365354e+003,8.954898e-002
1.367283e+003,8.910067e-002
1.369211e+003,8.845228e-002
1.371140e+003,8.770837e-002
1.373068e+003,8.733447e-002
1.374997e+003,8.705063e-002
1.376925e+003,8.639769e-002
1.378854e+003,8.532483e-002
1.380782e+003,8.384597e-002
1.382711e+003,8.218595e-002
1.384639e+003,8.055743e-002
1.386568e+003,7.868939e-002
1.388496e+003,7.709036e-002
1.390425e+003,7.589044e-002
1.392353e+003,7.476128e-002
1.394281e+003,7.394713e-002
1.396210e+003,7.373159e-002
1.398138e+003,7.376803e-002
1.400067e+003,7.368892e-002
1.401995e+003,7.362006e-002
1.403924e+003,7.370639e-002
1.405852e+003,7.463850e-002
1.407781e+003,7.569795e-002
1.409709e+003,7.644826e-002
1.411638e+003,7.756617e-002
1.413566e+003,7.879978e-002
1.415495e+003,8.030134e-002
1.417423e+003,8.201130e-002
1.419352e+003,8.400395e-002
1.421280e+003,8.626369e-002
1.423208e+003,8.881751e-002
1.425137e+003,9.133552e-002
1.427065e+003,9.346325e-002
1.428994e+003,9.463540e-002
1.430922e+003,9.460162e-002
1.432851e+003,9.407749e-002
1.434779e+003,9.311461e-002
1.436708e+003,9.182180e-002
1.438636e+003,9.120719e-002
1.440565e+003,9.165695e-002
1.442493e+003,9.284914e-002
1.444422e+003,9.459569e-002
1.446350e+003,9.676652e-002
1.448279e+003,9.884670e-002
1.450207e+003,1.003623e-001
1.452135e+003,1.007361e-001
1.454064e+003,1.000436e-001
1.455992e+003,9.910134e-002
1.457921e+003,9.827998e-002
1.459849e+003,9.826458e-002
1.461778e+003,9.892159e-002
1.463706e+003,9.840814e-002
1.465635e+003,9.551091e-002
1.467563e+003,9.057834e-002
1.469492e+003,8.485547e-002
1.471420e+003,7.966245e-002
1.473349e+003,7.480966e-002
1.475277e+003,7.007134e-002
1.477206e+003,6.637339e-002
1.479134e+003,6.389175e-002
1.481063e+003,6.164382e-002
1.482991e+003,5.990791e-002
1.484919e+003,5.877188e-002
1.486848e+003,5.840778e-002
1.488776e+003,5.856499e-002
1.490705e+003,5.915384e-002
1.492633e+003,6.040748e-002
1.494562e+003,6.201658e-002
1.496490e+003,6.417859e-002
1.498419e+003,6.721564e-002
1.500347e+003,7.130829e-002
1.502276e+003,7.552085e-002
1.504204e+003,7.982229e-002
1.506133e+003,8.512066e-002
1.508061e+003,9.231527e-002
1.509990e+003,1.007105e-001
1.511918e+003,1.078435e-001
1.513846e+003,1.102597e-001
1.515775e+003,1.052777e-001
1.517703e+003,9.351486e-002
1.519632e+003,7.934830e-002
1.521560e+003,6.655008e-002
1.523489e+003,5.648283e-002
1.525417e+003,4.877675e-002
1.527346e+003,4.304647e-002
1.529274e+003,3.900906e-002
1.531203e+003,3.634624e-002
1.533131e+003,3.509006e-002
1.535060e+003,3.532297e-002
1.536988e+003,3.681174e-002
1.538917e+003,3.822562e-002
1.540845e+003,3.885246e-002
1.542773e+003,3.818680e-002
1.544702e+003,3.671264e-002
1.546630e+003,3.507996e-002
1.548559e+003,3.378058e-002
1.550487e+003,3.322041e-002
1.552416e+003,3.334752e-002
1.554344e+003,3.396879e-002
1.556273e+003,3.492876e-002
1.558201e+003,3.595747e-002
1.560130e+003,3.693271e-002
1.562058e+003,3.819834e-002
1.563987e+003,3.977003e-002
1.565915e+003,4.160881e-002
1.567844e+003,4.355086e-002
1.569772e+003,4.578882e-002
1.571700e+003,4.849135e-002
1.573629e+003,5.152676e-002
1.575557e+003,5.464895e-002
1.577486e+003,5.746413e-002
1.579414e+003,5.919002e-002
1.581343e+003,6.013370e-002
1.583271e+003,6.105156e-002
1.585200e+003,6.223119e-002
1.587128e+003,6.349795e-002
1.589057e+003,6.467348e-002
1.590985e+003,6.586271e-002
1.592914e+003,6.725436e-002
1.594842e+003,6.848691e-002
1.596771e+003,6.942549e-002
1.598699e+003,7.002860e-002
1.600627e+003,7.049813e-002
1.602556e+003,7.049941e-002
1.604484e+003,6.994089e-002
1.606413e+003,6.912577e-002
1.608341e+003,6.811384e-002
1.610270e+003,6.681529e-002
1.612198e+003,6.514235e-002
1.614127e+003,6.289557e-002
1.616055e+003,6.047911e-002
1.617984e+003,5.803705e-002
1.619912e+003,5.565896e-002
1.621841e+003,5.359361e-002
1.623769e+003,5.223369e-002
1.625698e+003,5.120048e-002
1.627626e+003,5.024396e-002
1.629554e+003,4.980012e-002
1.631483e+003,4.979603e-002
1.633411e+003,4.970801e-002
1.635340e+003,4.949002e-002
1.637268e+003,4.956321e-002
1.639197e+003,4.963724e-002
1.641125e+003,4.979495e-002
1.643054e+003,5.037756e-002
1.644982e+003,5.069328e-002
1.646911e+003,5.120924e-002
1.648839e+003,5.160232e-002
1.650768e+003,5.184941e-002
1.652696e+003,5.223552e-002
1.654625e+003,5.279525e-002
1.656553e+003,5.316453e-002
1.658481e+003,5.337317e-002
1.660410e+003,5.388947e-002
1.662338e+003,5.414061e-002
1.664267e+003,5.436699e-002
1.666195e+003,5.509432e-002
1.668124e+003,5.587645e-002
1.670052e+003,5.672939e-002
1.671981e+003,5.731385e-002
1.673909e+003,5.776961e-002
1.675838e+003,5.841479e-002
1.677766e+003,5.931633e-002
1.679695e+003,6.029326e-002
1.681623e+003,6.127078e-002
1.683552e+003,6.254135e-002
1.685480e+003,6.401794e-002
1.687408e+003,6.574342e-002
1.689337e+003,6.762035e-002
1.691265e+003,6.941850e-002
1.693194e+003,7.104968e-002
1.695122e+003,7.246999e-002
1.697051e+003,7.386790e-002
1.698979e+003,7.496186e-002
1.700908e+003,7.571582e-002
1.702836e+003,7.613812e-002
1.704765e+003,7.630608e-002
1.706693e+003,7.641211e-002
1.708622e+003,7.591317e-002
1.710550e+003,7.502168e-002
1.712479e+003,7.389881e-002
1.714407e+003,7.244533e-002
1.716335e+003,7.073461e-002
1.718264e+003,6.914466e-002
1.720192e+003,6.756491e-002
1.722121e+003,6.561730e-002
1.724049e+003,6.358785e-002
1.725978e+003,6.151103e-002
1.727906e+003,5.956341e-002
1.729835e+003,5.768957e-002
1.731763e+003,5.582438e-002
1.733692e+003,5.417465e-002
1.735620e+003,5.278463e-002
1.737549e+003,5.132188e-002
1.739477e+003,4.984219e-002
1.741406e+003,4.813417e-002
1.743334e+003,4.634690e-002
1.745262e+003,4.448065e-002
1.747191e+003,4.274043e-002
1.749119e+003,4.117399e-002
1.751048e+003,3.968463e-002
1.752976e+003,3.821788e-002
1.754905e+003,3.675934e-002
1.756833e+003,3.565767e-002
1.758762e+003,3.431934e-002
1.760690e+003,3.292446e-002
1.762619e+003,3.160435e-002
1.764547e+003,3.016384e-002
1.766476e+003,2.906494e-002
1.768404e+003,2.811391e-002
1.770333e+003,2.698774e-002
1.772261e+003,2.590339e-002
1.774189e+003,2.519033e-002
1.776118e+003,2.455771e-002
1.778046e+003,2.353347e-002
1.779975e+003,2.225965e-002
1.781903e+003,2.147459e-002
1.783832e+003,2.082243e-002
1.785760e+003,2.015501e-002
1.787689e+003,1.953355e-002
1.789617e+003,1.891482e-002
1.791546e+003,1.820284e-002
1.793474e+003,1.766540e-002
1.795403e+003,1.706411e-002
1.797331e+003,1.640408e-002
1.799260e+003,1.580264e-002
1.801188e+003,1.538706e-002
1.803116e+003,1.502247e-002
1.805045e+003,1.456915e-002
1.806973e+003,1.405816e-002
1.808902e+003,1.366630e-002
1.810830e+003,1.341536e-002
1.812759e+003,1.317973e-002
1.814687e+003,1.279651e-002
1.816616e+003,1.249338e-002
1.818544e+003,1.236927e-002
1.820473e+003,1.226452e-002
1.822401e+003,1.232939e-002
1.824330e+003,1.237762e-002
1.826258e+003,1.235434e-002
1.828187e+003,1.235550e-002
1.830115e+003,1.240169e-002
1.832043e+003,1.222843e-002
1.833972e+003,1.212865e-002
1.835900e+003,1.235911e-002
1.837829e+003,1.241850e-002
1.839757e+003,1.228337e-002
1.841686e+003,1.230014e-002
1.843614e+003,1.241898e-002
1.845543e+003,1.255487e-002
1.847471e+003,1.248925e-002
1.849400e+003,1.249277e-002
1.851328e+003,1.239675e-002
1.853257e+003,1.252711e-002
1.855185e+003,1.268756e-002
1.857114e+003,1.259007e-002
1.859042e+003,1.270769e-002
1.860970e+003,1.286510e-002
1.862899e+003,1.300335e-002
1.864827e+003,1.299837e-002
1.866756e+003,1.288995e-002
1.868684e+003,1.288620e-002
1.870613e+003,1.284500e-002
1.872541e+003,1.278651e-002
1.874470e+003,1.287999e-002
1.876398e+003,1.303955e-002
1.878327e+003,1.311983e-002
1.880255e+003,1.315893e-002
1.882183e+003,1.298683e-002
1.884112e+003,1.273519e-002
1.886040e+003,1.269759e-002
1.887969e+003,1.276648e-002
1.889897e+003,1.283917e-002
1.891826e+003,1.304907e-002
1.893754e+003,1.313560e-002
1.895683e+003,1.293706e-002
1.897611e+003,1.282968e-002
1.899540e+003,1.278654e-002
1.901468e+003,1.273905e-002
1.903397e+003,1.264533e-002
1.905325e+003,1.269503e-002
1.907254e+003,1.282432e-002
1.909182e+003,1.280709e-002
1.911110e+003,1.282306e-002
1.913039e+003,1.308906e-002
1.914967e+003,1.322376e-002
1.916896e+003,1.303463e-002
1.918824e+003,1.315032e-002
1.920753e+003,1.332440e-002
1.922681e+003,1.318554e-002
1.924610e+003,1.316241e-002
1.926538e+003,1.315264e-002
1.928467e+003,1.325559e-002
1.930395e+003,1.342192e-002
1.932324e+003,1.324770e-002
1.934252e+003,1.303975e-002
1.936181e+003,1.310729e-002
1.938109e+003,1.336933e-002
1.940037e+003,1.354442e-002
1.941966e+003,1.352863e-002
1.943894e+003,1.345268e-002
1.945823e+003,1.349444e-002
1.947751e+003,1.339250e-002
1.949680e+003,1.331405e-002
1.951608e+003,1.344434e-002
1.953537e+003,1.324541e-002
1.955465e+003,1.308216e-002
1.957394e+003,1.323028e-002
1.959322e+003,1.339421e-002
1.961251e+003,1.346563e-002
1.963179e+003,1.356842e-002
1.965108e+003,1.368733e-002
1.967036e+003,1.360062e-002
1.968964e+003,1.359522e-002
1.970893e+003,1.365950e-002
1.972821e+003,1.369516e-002
1.974750e+003,1.363341e-002
1.976678e+003,1.361180e-002
1.978607e+003,1.367529e-002
1.980535e+003,1.385721e-002
1.982464e+003,1.406579e-002
1.984392e+003,1.401836e-002
1.986321e+003,1.381948e-002
1.988249e+003,1.379725e-002
1.990178e+003,1.382550e-002
1.992106e+003,1.359153e-002
1.994035e+003,1.356719e-002
1.995963e+003,1.365047e-002
1.997891e+003,1.370860e-002
1.999820e+003,1.382269e-002
2.001748e+003,1.399406e-002
2.003677e+003,1.395526e-002
2.005605e+003,1.383918e-002
2.007534e+003,1.388495e-002
2.009462e+003,1.382290e-002
2.011391e+003,1.403201e-002
2.013319e+003,1.428297e-002
2.015248e+003,1.413760e-002
2.017176e+003,1.400755e-002
2.019105e+003,1.404984e-002
2.021033e+003,1.409379e-002
2.022962e+003,1.400560e-002
2.024890e+003,1.387442e-002
2.026818e+003,1.400125e-002
2.028747e+003,1.431451e-002
2.030675e+003,1.439855e-002
2.032604e+003,1.424072e-002
2.034532e+003,1.414654e-002
2.036461e+003,1.413476e-002
2.038389e+003,1.420699e-002
2.040318e+003,1.431564e-002
2.042246e+003,1.437858e-002
2.044175e+003,1.435564e-002
2.046103e+003,1.418991e-002
2.048032e+003,1.425979e-002
2.049960e+003,1.417892e-002
2.051889e+003,1.397938e-002
2.053817e+003,1.409769e-002
2.055746e+003,1.437656e-002
2.057674e+003,1.432731e-002
2.059603e+003,1.438512e-002
2.061531e+003,1.446812e-002
2.063459e+003,1.441547e-002
2.065388e+003,1.437732e-002
2.067316e+003,1.452430e-002
2.069245e+003,1.454685e-002
2.071173e+003,1.436413e-002
2.073102e+003,1.431595e-002
2.075030e+003,1.434416e-002
2.076959e+003,1.430023e-002
2.078887e+003,1.433026e-002
2.080816e+003,1.437132e-002
2.082744e+003,1.410789e-002
2.084673e+003,1.398493e-002
2.086601e+003,1.406880e-002
2.088530e+003,1.414342e-002
2.090458e+003,1.424068e-002
2.092386e+003,1.422747e-002
2.094315e+003,1.432399e-002
2.096243e+003,1.451903e-002
2.098172e+003,1.423356e-002
2.100100e+003,1.403982e-002
2.102029e+003,1.426732e-002
2.103957e+003,1.431701e-002
2.105886e+003,1.419302e-002
2.107814e+003,1.422394e-002
2.109743e+003,1.433957e-002
2.111671e+003,1.430968e-002
2.113600e+003,1.412316e-002
2.115528e+003,1.398003e-002
2.117457e+003,1.398479e-002
2.119385e+003,1.404892e-002
2.121313e+003,1.418710e-002
2.123242e+003,1.420052e-002
2.125170e+003,1.399263e-002
2.127099e+003,1.421572e-002
2.129027e+003,1.440016e-002
2.130956e+003,1.433129e-002
2.132884e+003,1.420675e-002
2.134813e+003,1.416263e-002
2.136741e+003,1.412247e-002
2.138670e+003,1.409150e-002
2.140598e+003,1.423894e-002
2.142527e+003,1.423137e-002
2.144455e+003,1.412812e-002
2.146384e+003,1.438488e-002
2.148312e+003,1.441612e-002
2.150240e+003,1.434820e-002
2.152169e+003,1.444784e-002
2.154097e+003,1.454613e-002
2.156026e+003,1.438177e-002
2.157954e+003,1.437057e-002
2.159883e+003,1.440776e-002
2.161811e+003,1.426561e-002
2.163740e+003,1.421952e-002
2.165668e+003,1.414161e-002
2.167597e+003,1.415581e-002
2.169525e+003,1.424845e-002
2.171454e+003,1.421747e-002
2.173382e+003,1.422384e-002
2.175311e+003,1.417943e-002
2.177239e+003,1.426948e-002
2.179167e+003,1.433749e-002
2.181096e+003,1.448076e-002
2.183024e+003,1.447795e-002
2.184953e+003,1.415376e-002
2.186881e+003,1.419535e-002
2.188810e+003,1.445712e-002
2.190738e+003,1.417865e-002
2.192667e+003,1.385543e-002
2.194595e+003,1.414503e-002
2.196524e+003,1.432677e-002
2.198452e+003,1.430297e-002
2.200381e+003,1.419121e-002
2.202309e+003,1.432081e-002
2.204238e+003,1.441064e-002
2.206166e+003,1.432796e-002
2.208094e+003,1.440276e-002
2.210023e+003,1.434320e-002
2.211951e+003,1.420658e-002
2.213880e+003,1.439626e-002
2.215808e+003,1.455332e-002
2.217737e+003,1.462275e-002
2.219665e+003,1.472676e-002
2.221594e+003,1.458656e-002
2.223522e+003,1.445784e-002
2.225451e+003,1.443308e-002
2.227379e+003,1.443088e-002
2.229308e+003,1.452502e-002
2.231236e+003,1.456761e-002
2.233165e+003,1.454150e-002
2.235093e+003,1.451735e-002
2.237021e+003,1.462127e-002
2.238950e+003,1.469030e-002
2.240878e+003,1.466082e-002
2.242807e+003,1.478254e-002
2.244735e+003,1.489520e-002
2.246664e+003,1.445246e-002
2.248592e+003,1.427359e-002
2.250521e+003,1.439708e-002
2.252449e+003,1.449385e-002
2.254378e+003,1.465993e-002
2.256306e+003,1.487226e-002
2.258235e+003,1.505900e-002
2.260163e+003,1.485920e-002
2.262092e+003,1.472594e-002
2.264020e+003,1.486256e-002
2.265948e+003,1.487747e-002
2.267877e+003,1.461267e-002
2.269805e+003,1.465760e-002
2.271734e+003,1.504302e-002
2.273662e+003,1.484846e-002
2.275591e+003,1.452667e-002
2.277519e+003,1.484462e-002
2.279448e+003,1.522434e-002
2.281376e+003,1.521020e-002
2.283305e+003,1.507077e-002
2.285233e+003,1.504048e-002
2.287162e+003,1.498525e-002
2.289090e+003,1.483773e-002
2.291019e+003,1.496564e-002
2.292947e+003,1.508020e-002
2.294875e+003,1.503564e-002
2.296804e+003,1.507931e-002
2.298732e+003,1.516401e-002
2.300661e+003,1.525018e-002
2.302589e+003,1.523038e-002
2.304518e+003,1.505855e-002
2.306446e+003,1.507200e-002
2.308375e+003,1.517321e-002
2.310303e+003,1.523601e-002
2.312232e+003,1.539592e-002
2.314160e+003,1.548052e-002
2.316089e+003,1.538329e-002
2.318017e+003,1.532428e-002
2.319946e+003,1.535260e-002
2.321874e+003,1.529318e-002
2.323802e+003,1.526926e-002
2.325731e+003,1.541185e-002
2.327659e+003,1.545981e-002
2.329588e+003,1.536708e-002
2.331516e+003,1.531463e-002
2.333445e+003,1.526940e-002
2.335373e+003,1.526809e-002
2.337302e+003,1.542428e-002
2.339230e+003,1.549741e-002
2.341159e+003,1.531182e-002
2.343087e+003,1.532459e-002
2.345016e+003,1.536317e-002
2.346944e+003,1.541418e-002
2.348873e+003,1.519133e-002
2.350801e+003,1.512229e-002
2.352729e+003,1.540951e-002
2.354658e+003,1.555290e-002
2.356586e+003,1.569173e-002
2.358515e+003,1.574595e-002
2.360443e+003,1.573286e-002
2.362372e+003,1.554030e-002
2.364300e+003,1.559123e-002
2.366229e+003,1.580419e-002
2.368157e+003,1.554257e-002
2.370086e+003,1.547083e-002
2.372014e+003,1.580054e-002
2.373943e+003,1.594833e-002
2.375871e+003,1.565567e-002
2.377800e+003,1.549095e-002
2.379728e+003,1.581391e-002
2.381656e+003,1.604806e-002
2.383585e+003,1.589251e-002
2.385513e+003,1.585023e-002
2.387442e+003,1.589701e-002
2.389370e+003,1.598346e-002
2.391299e+003,1.582219e-002
2.393227e+003,1.575110e-002
2.395156e+003,1.589014e-002
2.397084e+003,1.582845e-002
2.399013e+003,1.587336e-002
2.400941e+003,1.602526e-002
2.402870e+003,1.601711e-002
2.404798e+003,1.607659e-002
2.406727e+003,1.631397e-002
2.408655e+003,1.631387e-002
2.410583e+003,1.618509e-002
2.412512e+003,1.619117e-002
2.414440e+003,1.626977e-002
2.416369e+003,1.615056e-002
2.418297e+003,1.611655e-002
2.420226e+003,1.626739e-002
2.422154e+003,1.640952e-002
2.424083e+003,1.632347e-002
2.426011e+003,1.639001e-002
2.427940e+003,1.647807e-002
2.429868e+003,1.631456e-002
2.431797e+003,1.628312e-002
2.433725e+003,1.628091e-002
2.435654e+003,1.652305e-002
2.437582e+003,1.674904e-002
2.439510e+003,1.657809e-002
2.441439e+003,1.644531e-002
2.443367e+003,1.641059e-002
2.445296e+003,1.639999e-002
2.447224e+003,1.656838e-002
2.449153e+003,1.660973e-002
2.451081e+003,1.648764e-002
2.453010e+003,1.678186e-002
2.454938e+003,1.681003e-002
2.456867e+003,1.652808e-002
2.458795e+003,1.664736e-002
2.460724e+003,1.657847e-002
2.462652e+003,1.652019e-002
2.464581e+003,1.696628e-002
2.466509e+003,1.728376e-002
2.468438e+003,1.712901e-002
2.470366e+003,1.700456e-002
2.472294e+003,1.700880e-002
2.474223e+003,1.684647e-002
2.476151e+003,1.673695e-002
2.478080e+003,1.679019e-002
2.480008e+003,1.707049e-002
2.481937e+003,1.706542e-002
2.483865e+003,1.706725e-002
2.485794e+003,1.711584e-002
2.487722e+003,1.698303e-002
2.489651e+003,1.716379e-002
2.491579e+003,1.753525e-002
2.493508e+003,1.734986e-002
2.495436e+003,1.722663e-002
2.497365e+003,1.744049e-002
2.499293e+003,1.747468e-002
2.501221e+003,1.744101e-002
2.503150e+003,1.728052e-002
2.505078e+003,1.745998e-002
2.507007e+003,1.746288e-002
2.508935e+003,1.718567e-002
2.510864e+003,1.728965e-002
2.512792e+003,1.748568e-002
2.514721e+003,1.756641e-002
2.516649e+003,1.759177e-002
2.518578e+003,1.778496e-002
2.520506e+003,1.802746e-002
2.522435e+003,1.787248e-002
2.524363e+003,1.748692e-002
2.526292e+003,1.755568e-002
2.528220e+003,1.772331e-002
2.530148e+003,1.787658e-002
2.532077e+003,1.789322e-002
2.534005e+003,1.783218e-002
2.535934e+003,1.798239e-002
2.537862e+003,1.805453e-002
2.539791e+003,1.804061e-002
2.541719e+003,1.802711e-002
2.543648e+003,1.781983e-002
2.545576e+003,1.776943e-002
2.547505e+003,1.792737e-002
2.549433e+003,1.793815e-002
2.551362e+003,1.790086e-002
2.553290e+003,1.806707e-002
2.555219e+003,1.825274e-002
2.557147e+003,1.800563e-002
2.559075e+003,1.808790e-002
2.561004e+003,1.825132e-002
2.562932e+003,1.815945e-002
2.564861e+003,1.816746e-002
2.566789e+003,1.812704e-002
2.568718e+003,1.794651e-002
2.570646e+003,1.789954e-002
2.572575e+003,1.808248e-002
2.574503e+003,1.807937e-002
2.576432e+003,1.831716e-002
2.578360e+003,1.831190e-002
2.580289e+003,1.826960e-002
2.582217e+003,1.830098e-002
2.584146e+003,1.839043e-002
2.586074e+003,1.846770e-002
2.588002e+003,1.842082e-002
2.589931e+003,1.842123e-002
2.591859e+003,1.853495e-002
2.593788e+003,1.847205e-002
2.595716e+003,1.856168e-002
2.597645e+003,1.880952e-002
2.599573e+003,1.880679e-002
2.601502e+003,1.850642e-002
2.603430e+003,1.822579e-002
2.605359e+003,1.838943e-002
2.607287e+003,1.835500e-002
2.609216e+003,1.850711e-002
2.611144e+003,1.869266e-002
2.613073e+003,1.882682e-002
2.615001e+003,1.889025e-002
2.616929e+003,1.876406e-002
2.618858e+003,1.857053e-002
2.620786e+003,1.835383e-002
2.622715e+003,1.833821e-002
2.624643e+003,1.865194e-002
2.626572e+003,1.889555e-002
2.628500e+003,1.866709e-002
2.630429e+003,1.840291e-002
2.632357e+003,1.851894e-002
2.634286e+003,1.863340e-002
2.636214e+003,1.866471e-002
2.638143e+003,1.891126e-002
2.640071e+003,1.913562e-002
2.642000e+003,1.922146e-002
2.643928e+003,1.907783e-002
2.645856e+003,1.878755e-002
2.647785e+003,1.855155e-002
2.649713e+003,1.886284e-002
2.651642e+003,1.912855e-002
2.653570e+003,1.908330e-002
2.655499e+003,1.900734e-002
2.657427e+003,1.868698e-002
2.659356e+003,1.849709e-002
2.661284e+003,1.894871e-002
2.663213e+003,1.927363e-002
2.665141e+003,1.917682e-002
2.667070e+003,1.913748e-002
2.668998e+003,1.911647e-002
2.670927e+003,1.917014e-002
2.672855e+003,1.902624e-002
2.674783e+003,1.885699e-002
2.676712e+003,1.904934e-002
2.678640e+003,1.947585e-002
2.680569e+003,1.942381e-002
2.682497e+003,1.928267e-002
2.684426e+003,1.935811e-002
2.686354e+003,1.938427e-002
2.688283e+003,1.914715e-002
2.690211e+003,1.895407e-002
2.692140e+003,1.906343e-002
2.694068e+003,1.928204e-002
2.695997e+003,1.950669e-002
2.697925e+003,1.965273e-002
2.699854e+003,1.970265e-002
2.701782e+003,1.976257e-002
2.703710e+003,1.978171e-002
2.705639e+003,1.966150e-002
2.707567e+003,1.985003e-002
2.709496e+003,1.996641e-002
2.711424e+003,1.976663e-002
2.713353e+003,1.957809e-002
2.715281e+003,1.962267e-002
2.717210e+003,1.978095e-002
2.719138e+003,1.976198e-002
2.721067e+003,1.981760e-002
2.722995e+003,2.017552e-002
2.724924e+003,2.011739e-002
2.726852e+003,1.991271e-002
2.728781e+003,1.981479e-002
2.730709e+003,1.996586e-002
2.732637e+003,2.019912e-002
2.734566e+003,1.986727e-002
2.736494e+003,1.978830e-002
2.738423e+003,2.017830e-002
2.740351e+003,2.047020e-002
2.742280e+003,2.074603e-002
2.744208e+003,2.051963e-002
2.746137e+003,2.034174e-002
2.748065e+003,2.042151e-002
2.749994e+003,2.049198e-002
2.751922e+003,2.042116e-002
2.753851e+003,2.023234e-002
2.755779e+003,2.050671e-002
2.757708e+003,2.061131e-002
2.759636e+003,2.069522e-002
2.761564e+003,2.062208e-002
2.763493e+003,2.073352e-002
2.765421e+003,2.076268e-002
2.767350e+003,2.061944e-002
2.769278e+003,2.058004e-002
2.771207e+003,2.065790e-002
2.773135e+003,2.052491e-002
2.775064e+003,2.059560e-002
2.776992e+003,2.084854e-002
2.778921e+003,2.104430e-002
2.780849e+003,2.106183e-002
2.782778e+003,2.126534e-002
2.784706e+003,2.137894e-002
2.786635e+003,2.120278e-002
2.788563e+003,2.116427e-002
2.790491e+003,2.113589e-002
2.792420e+003,2.139276e-002
2.794348e+003,2.161478e-002
2.796277e+003,2.189214e-002
2.798205e+003,2.240309e-002
2.800134e+003,2.262413e-002
2.802062e+003,2.257917e-002
2.803991e+003,2.291422e-002
2.805919e+003,2.319895e-002
2.807848e+003,2.330760e-002
2.809776e+003,2.358815e-002
2.811705e+003,2.361368e-002
2.813633e+003,2.371634e-002
2.815562e+003,2.416880e-002
2.817490e+003,2.466936e-002
2.819418e+003,2.502424e-002
2.821347e+003,2.525090e-002
2.823275e+003,2.543274e-002
2.825204e+003,2.618467e-002
2.827132e+003,2.699039e-002
2.829061e+003,2.730543e-002
2.830989e+003,2.782724e-002
2.832918e+003,2.854928e-002
2.834846e+003,2.921518e-002
2.836775e+003,3.007175e-002
2.838703e+003,3.090774e-002
2.840632e+003,3.223294e-002
2.842560e+003,3.409837e-002
2.844489e+003,3.655262e-002
2.846417e+003,4.027306e-002
2.848345e+003,4.356518e-002
2.850274e+003,4.345274e-002
2.852202e+003,4.099961e-002
2.854131e+003,3.847677e-002
2.856059e+003,3.684878e-002
2.857988e+003,3.619219e-002
2.859916e+003,3.577639e-002
2.861845e+003,3.534295e-002
2.863773e+003,3.491393e-002
2.865702e+003,3.447862e-002
2.867630e+003,3.440057e-002
2.869558e+003,3.488747e-002
2.871487e+003,3.536782e-002
2.873415e+003,3.556050e-002
2.875344e+003,3.516859e-002
2.877272e+003,3.496072e-002
2.879201e+003,3.504796e-002
2.881129e+003,3.499570e-002
2.883058e+003,3.514143e-002
2.884986e+003,3.524333e-002
2.886915e+003,3.539647e-002
2.888843e+003,3.602198e-002
2.890771e+003,3.658956e-002
2.892700e+003,3.682010e-002
2.894628e+003,3.729517e-002
2.896557e+003,3.817717e-002
2.898485e+003,3.930332e-002
2.900414e+003,3.965298e-002
2.902342e+003,4.024427e-002
2.904271e+003,4.145911e-002
2.906199e+003,4.278178e-002
2.908128e+003,4.468839e-002
2.910056e+003,4.698179e-002
2.911985e+003,5.055769e-002
2.913913e+003,5.477324e-002
2.915842e+003,5.739398e-002
2.917770e+003,5.766051e-002
2.919698e+003,5.624655e-002
2.921627e+003,5.441931e-002
2.923555e+003,5.267958e-002
2.925484e+003,5.095920e-002
2.927412e+003,4.933178e-002
2.929341e+003,4.843949e-002
2.931269e+003,4.776474e-002
2.933198e+003,4.673867e-002
2.935126e+003,4.515399e-002
2.937055e+003,4.400933e-002
2.938983e+003,4.301121e-002
2.940912e+003,4.231401e-002
2.942840e+003,4.172665e-002
2.944769e+003,4.105099e-002
2.946697e+003,4.042526e-002
2.948625e+003,4.007679e-002
2.950554e+003,3.972911e-002
2.952482e+003,3.980852e-002
2.954411e+003,3.991864e-002
2.956339e+003,3.943410e-002
2.958268e+003,3.893908e-002
2.960196e+003,3.834638e-002
2.962125e+003,3.754592e-002
2.964053e+003,3.683035e-002
2.965982e+003,3.594038e-002
2.967910e+003,3.471845e-002
2.969839e+003,3.401834e-002
2.971767e+003,3.280767e-002
2.973696e+003,3.169316e-002
2.975624e+003,3.095727e-002
2.977552e+003,3.037632e-002
2.979481e+003,2.973780e-002
2.981409e+003,2.871411e-002
2.983338e+003,2.750843e-002
2.985266e+003,2.683986e-002
2.987195e+003,2.643176e-002
2.989123e+003,2.639447e-002
2.991052e+003,2.626562e-002
2.992980e+003,2.578871e-002
2.994909e+003,2.562349e-002
2.996837e+003,2.511674e-002
2.998766e+003,2.490696e-002
3.000694e+003,2.518043e-002
3.002623e+003,2.514068e-002
3.004551e+003,2.461009e-002
3.006479e+003,2.432584e-002
3.008408e+003,2.439814e-002
3.010336e+003,2.429514e-002
3.012265e+003,2.436095e-002
3.014193e+003,2.410159e-002
3.016122e+003,2.365766e-002
3.018050e+003,2.363506e-002
3.019979e+003,2.386866e-002
3.021907e+003,2.350804e-002
3.023836e+003,2.385718e-002
3.025764e+003,2.403760e-002
3.027693e+003,2.349017e-002
3.029621e+003,2.343967e-002
3.031550e+003,2.341739e-002
3.033478e+003,2.347268e-002
3.035406e+003,2.408379e-002
3.037335e+003,2.401922e-002
3.039263e+003,2.384871e-002
3.041192e+003,2.401981e-002
3.043120e+003,2.406474e-002
3.045049e+003,2.380132e-002
3.046977e+003,2.357496e-002
3.048906e+003,2.363793e-002
3.050834e+003,2.397937e-002
3.052763e+003,2.419686e-002
3.054691e+003,2.439603e-002
3.056620e+003,2.444055e-002
3.058548e+003,2.446659e-002
3.060477e+003,2.422860e-002
3.062405e+003,2.434322e-002
3.064333e+003,2.461093e-002
3.066262e+003,2.461746e-002
3.068190e+003,2.489994e-002
3.070119e+003,2.480160e-002
3.072047e+003,2.469805e-002
3.073976e+003,2.476616e-002
3.075904e+003,2.443242e-002
3.077833e+003,2.414246e-002
3.079761e+003,2.472032e-002
3.081690e+003,2.524202e-002
3.083618e+003,2.520258e-002
3.085547e+003,2.507848e-002
3.087475e+003,2.520483e-002
3.089404e+003,2.539115e-002
3.091332e+003,2.505955e-002
3.093260e+003,2.495194e-002
3.095189e+003,2.525097e-002
3.097117e+003,2.530590e-002
3.099046e+003,2.559709e-002
3.100974e+003,2.578727e-002
3.102903e+003,2.556644e-002
3.104831e+003,2.516063e-002
3.106760e+003,2.537383e-002
3.108688e+003,2.579444e-002
3.110617e+003,2.573661e-002
3.112545e+003,2.597039e-002
3.114474e+003,2.632191e-002
3.116402e+003,2.595492e-002
3.118331e+003,2.567206e-002
3.120259e+003,2.558651e-002
3.122188e+003,2.604163e-002
3.124116e+003,2.644060e-002
3.126044e+003,2.671866e-002
3.127973e+003,2.671105e-002
3.129901e+003,2.649803e-002
3.131830e+003,2.649934e-002
3.133758e+003,2.697533e-002
3.135687e+003,2.709956e-002
3.137615e+003,2.705957e-002
3.139544e+003,2.746710e-002
3.141472e+003,2.765019e-002
3.143401e+003,2.736761e-002
3.145329e+003,2.756209e-002
3.147258e+003,2.790592e-002
3.149186e+003,2.795970e-002
3.151115e+003,2.801427e-002
3.153043e+003,2.807146e-002
3.154971e+003,2.836794e-002
3.156900e+003,2.827895e-002
3.158828e+003,2.855137e-002
3.160757e+003,2.882970e-002
3.162685e+003,2.891185e-002
3.164614e+003,2.877245e-002
3.166542e+003,2.881536e-002
3.168471e+003,2.901234e-002
3.170399e+003,2.893530e-002
3.172328e+003,2.891561e-002
3.174256e+003,2.970914e-002
3.176185e+003,3.008205e-002
3.178113e+003,3.016970e-002
3.180042e+003,2.997812e-002
3.181970e+003,3.028657e-002
3.183898e+003,3.073668e-002
3.185827e+003,3.035642e-002
3.187755e+003,3.015926e-002
3.189684e+003,3.062058e-002
3.191612e+003,3.114105e-002
3.193541e+003,3.137096e-002
3.195469e+003,3.125498e-002
3.197398e+003,3.118605e-002
3.199326e+003,3.096435e-002
3.201255e+003,3.101506e-002
3.203183e+003,3.165627e-002
3.205112e+003,3.168838e-002
3.207040e+003,3.167986e-002
3.208969e+003,3.205997e-002
3.210897e+003,3.227524e-002
3.212825e+003,3.218641e-002
3.214754e+003,3.216632e-002
3.216682e+003,3.213004e-002
3.218611e+003,3.224429e-002
3.220539e+003,3.217556e-002
3.222468e+003,3.258821e-002
3.224396e+003,3.303167e-002
3.226325e+003,3.252393e-002
3.228253e+003,3.256860e-002
3.230182e+003,3.331929e-002
3.232110e+003,3.317084e-002
3.234039e+003,3.287718e-002
3.235967e+003,3.225372e-002
3.237896e+003,3.242402e-002
3.239824e+003,3.323125e-002
3.241752e+003,3.377746e-002
3.243681e+003,3.435789e-002
3.245609e+003,3.473360e-002
3.247538e+003,3.458345e-002
3.249466e+003,3.446503e-002
3.251395e+003,3.468332e-002
3.253323e+003,3.449466e-002
3.255252e+003,3.436492e-002
3.257180e+003,3.485486e-002
3.259109e+003,3.508909e-002
3.261037e+003,3.509379e-002
3.262966e+003,3.530604e-002
3.264894e+003,3.587840e-002
3.266823e+003,3.633244e-002
3.268751e+003,3.651275e-002
3.270679e+003,3.640598e-002
3.272608e+003,3.624462e-002
3.274536e+003,3.609114e-002
3.276465e+003,3.579837e-002
3.278393e+003,3.581388e-002
3.280322e+003,3.612603e-002
3.282250e+003,3.670539e-002
3.284179e+003,3.607231e-002
3.286107e+003,3.561941e-002
3.288036e+003,3.593531e-002
3.289964e+003,3.631216e-002
3.291893e+003,3.674993e-002
3.293821e+003,3.725221e-002
3.295750e+003,3.704124e-002
3.297678e+003,3.616370e-002
3.299606e+003,3.654148e-002
3.301535e+003,3.718582e-002
3.303463e+003,3.736558e-002
3.305392e+003,3.768857e-002
3.307320e+003,3.746493e-002
3.309249e+003,3.741935e-002
3.311177e+003,3.765695e-002
3.313106e+003,3.820558e-002
3.315034e+003,3.826347e-002
3.316963e+003,3.722943e-002
3.318891e+003,3.702789e-002
3.320820e+003,3.784811e-002
3.322748e+003,3.817034e-002
3.324677e+003,3.805118e-002
3.326605e+003,3.850960e-002
3.328533e+003,3.840418e-002
3.330462e+003,3.851923e-002
3.332390e+003,3.945344e-002
3.334319e+003,3.954895e-002
3.336247e+003,3.927397e-002
3.338176e+003,3.999417e-002
3.340104e+003,4.007011e-002
3.342033e+003,3.896271e-002
3.343961e+003,3.805520e-002
3.345890e+003,3.806051e-002
3.347818e+003,3.867944e-002
3.349747e+003,3.879381e-002
3.351675e+003,3.811600e-002
3.353604e+003,3.784601e-002
3.355532e+003,3.842970e-002
3.357460e+003,3.915905e-002
3.359389e+003,3.948606e-002
3.361317e+003,3.970566e-002
3.363246e+003,3.963309e-002
3.365174e+003,3.902106e-002
3.367103e+003,3.884739e-002
3.369031e+003,3.916053e-002
3.370960e+003,3.975017e-002
3.372888e+003,3.913312e-002
3.374817e+003,3.867720e-002
3.376745e+003,3.903430e-002
3.378674e+003,3.908773e-002
3.380602e+003,3.874809e-002
3.382531e+003,3.861707e-002
3.384459e+003,3.837493e-002
3.386387e+003,3.845479e-002
3.388316e+003,3.924021e-002
3.390244e+003,3.921700e-002
3.392173e+003,3.858897e-002
3.394101e+003,3.898271e-002
3.396030e+003,3.948472e-002
3.397958e+003,3.903919e-002
3.399887e+003,3.854947e-002
3.401815e+003,3.785357e-002
3.403744e+003,3.766721e-002
3.405672e+003,3.790151e-002
3.407601e+003,3.791311e-002
3.409529e+003,3.818466e-002
3.411458e+003,3.879830e-002
3.413386e+003,3.838406e-002
3.415314e+003,3.759722e-002
3.417243e+003,3.729603e-002
3.419171e+003,3.742412e-002
3.421100e+003,3.771339e-002
3.423028e+003,3.743893e-002
3.424957e+003,3.760199e-002
3.426885e+003,3.722408e-002
3.428814e+003,3.664818e-002
3.430742e+003,3.671625e-002
3.432671e+003,3.634458e-002
3.434599e+003,3.647906e-002
3.436528e+003,3.682519e-002
3.438456e+003,3.672086e-002
3.440385e+003,3.644197e-002
3.442313e+003,3.599847e-002
3.444241e+003,3.538051e-002
3.446170e+003,3.458338e-002
3.448098e+003,3.384336e-002
3.450027e+003,3.413152e-002
3.451955e+003,3.435951e-002
3.453884e+003,3.439914e-002
3.455812e+003,3.483228e-002
3.457741e+003,3.487957e-002
3.459669e+003,3.470984e-002
3.461598e+003,3.342520e-002
3.463526e+003,3.248122e-002
3.465455e+003,3.198453e-002
3.467383e+003,3.216468e-002
3.469312e+003,3.210014e-002
3.471240e+003,3.187626e-002
3.473168e+003,3.171266e-002
3.475097e+003,3.122475e-002
3.477025e+003,3.116355e-002
3.478954e+003,3.018366e-002
3.480882e+003,2.986137e-002
3.482811e+003,3.039593e-002
3.484739e+003,2.951053e-002
3.486668e+003,2.964482e-002
3.488596e+003,3.004111e-002
3.490525e+003,2.958398e-002
3.492453e+003,2.844512e-002
3.494382e+003,2.796585e-002
3.496310e+003,2.839132e-002
3.498239e+003,2.779015e-002
3.500167e+003,2.755885e-002
3.502095e+003,2.794698e-002
3.504024e+003,2.720584e-002
3.505952e+003,2.675450e-002
3.507881e+003,2.585911e-002
3.509809e+003,2.485611e-002
3.511738e+003,2.530664e-002
3.513666e+003,2.539210e-002
3.515595e+003,2.480005e-002
3.517523e+003,2.414719e-002
3.519452e+003,2.319707e-002
3.521380e+003,2.303838e-002
3.523309e+003,2.312794e-002
3.525237e+003,2.288516e-002
3.527166e+003,2.203964e-002
3.529094e+003,2.193438e-002
3.531022e+003,2.211271e-002
3.532951e+003,2.166576e-002
3.534879e+003,2.122276e-002
3.536808e+003,2.120171e-002
3.538736e+003,2.120992e-002
3.540665e+003,2.065627e-002
3.542593e+003,1.976756e-002
3.544522e+003,1.901596e-002
3.546450e+003,1.866893e-002
3.548379e+003,1.861878e-002
3.550307e+003,1.851603e-002
3.552236e+003,1.827441e-002
3.554164e+003,1.860408e-002
3.556093e+003,1.874316e-002
3.558021e+003,1.774485e-002
3.559949e+003,1.740756e-002
3.561878e+003,1.716727e-002
3.563806e+003,1.617694e-002
3.565735e+003,1.590382e-002
3.567663e+003,1.640147e-002
3.569592e+003,1.654945e-002
3.571520e+003,1.563664e-002
3.573449e+003,1.452235e-002
3.575377e+003,1.456607e-002
3.577306e+003,1.459139e-002
3.579234e+003,1.451629e-002
3.581163e+003,1.440506e-002
3.583091e+003,1.414893e-002
3.585020e+003,1.377785e-002
3.586948e+003,1.349089e-002
3.588876e+003,1.365064e-002
3.590805e+003,1.392286e-002
3.592733e+003,1.340275e-002
3.594662e+003,1.291221e-002
3.596590e+003,1.296652e-002
3.598519e+003,1.288483e-002
3.600447e+003,1.274717e-002
3.602376e+003,1.265467e-002
3.604304e+003,1.294911e-002
3.606233e+003,1.293098e-002
3.608161e+003,1.253065e-002
3.610090e+003,1.250719e-002
3.612018e+003,1.233123e-002
3.613947e+003,1.210221e-002
3.615875e+003,1.255016e-002
3.617803e+003,1.253860e-002
3.619732e+003,1.143569e-002
3.621660e+003,1.118016e-002
3.623589e+003,1.177615e-002
3.625517e+003,1.176753e-002
3.627446e+003,1.195383e-002
3.629374e+003,1.244407e-002
3.631303e+003,1.208610e-002
3.633231e+003,1.143600e-002
3.635160e+003,1.129410e-002
3.637088e+003,1.155307e-002
3.639017e+003,1.184247e-002
3.640945e+003,1.164036e-002
3.642874e+003,1.181823e-002
3.644802e+003,1.199525e-002
3.646730e+003,1.208068e-002
3.648659e+003,1.189154e-002
3.650587e+003,1.163369e-002
3.652516e+003,1.191419e-002
3.654444e+003,1.235458e-002
3.656373e+003,1.229138e-002
3.658301e+003,1.203851e-002
3.660230e+003,1.147421e-002
3.662158e+003,1.095219e-002
3.664087e+003,1.108232e-002
3.666015e+003,1.137450e-002
3.667944e+003,1.152054e-002
3.669872e+003,1.175453e-002
3.671801e+003,1.152800e-002
3.673729e+003,1.134348e-002
3.675657e+003,1.099141e-002
3.677586e+003,1.110126e-002
3.679514e+003,1.166391e-002
3.681443e+003,1.198251e-002
3.683371e+003,1.191003e-002
3.685300e+003,1.194545e-002
3.687228e+003,1.208010e-002
3.689157e+003,1.140631e-002
3.691085e+003,1.117207e-002
3.693014e+003,1.200478e-002
3.694942e+003,1.213097e-002
3.696871e+003,1.196299e-002
3.698799e+003,1.178745e-002
3.700728e+003,1.180216e-002
3.702656e+003,1.167168e-002
3.704584e+003,1.135284e-002
3.706513e+003,1.150775e-002
3.708441e+003,1.232144e-002
3.710370e+003,1.268377e-002
3.712298e+003,1.224560e-002
3.714227e+003,1.206228e-002
3.716155e+003,1.166905e-002
3.718084e+003,1.162590e-002
3.720012e+003,1.225842e-002
3.721941e+003,1.250385e-002
3.723869e+003,1.225423e-002
3.725798e+003,1.232816e-002
3.727726e+003,1.255391e-002
3.729655e+003,1.241028e-002
3.731583e+003,1.188023e-002
3.733511e+003,1.209680e-002
3.735440e+003,1.250170e-002
3.737368e+003,1.269612e-002
3.739297e+003,1.246876e-002
3.741225e+003,1.253853e-002
3.743154e+003,1.286951e-002
3.745082e+003,1.290504e-002
3.747011e+003,1.334897e-002
3.748939e+003,1.328132e-002
3.750868e+003,1.286063e-002
3.752796e+003,1.248922e-002
3.754725e+003,1.292760e-002
3.756653e+003,1.328268e-002
3.758582e+003,1.301308e-002
3.760510e+003,1.275751e-002
3.762438e+003,1.280668e-002
3.764367e+003,1.302118e-002
3.766295e+003,1.314035e-002
3.768224e+003,1.296406e-002
3.770152e+003,1.277102e-002
3.772081e+003,1.237282e-002
3.774009e+003,1.240217e-002
3.775938e+003,1.234299e-002
3.777866e+003,1.259948e-002
3.779795e+003,1.282395e-002
3.781723e+003,1.244755e-002
3.783652e+003,1.244135e-002
3.785580e+003,1.263550e-002
3.787509e+003,1.257735e-002
3.789437e+003,1.234302e-002
3.791365e+003,1.208140e-002
3.793294e+003,1.169302e-002
3.795222e+003,1.176764e-002
3.797151e+003,1.177482e-002
3.799079e+003,1.184754e-002
3.801008e+003,1.223170e-002
3.802936e+003,1.272663e-002
3.804865e+003,1.229039e-002
3.806793e+003,1.216406e-002
3.808722e+003,1.257574e-002
3.810650e+003,1.299226e-002
3.812579e+003,1.292460e-002
3.814507e+003,1.255886e-002
3.816436e+003,1.258099e-002
3.818364e+003,1.239924e-002
3.820292e+003,1.225457e-002
3.822221e+003,1.220904e-002
3.824149e+003,1.202934e-002
3.826078e+003,1.230948e-002
3.828006e+003,1.290606e-002
3.829935e+003,1.266924e-002
3.831863e+003,1.176375e-002
3.833792e+003,1.186978e-002
3.835720e+003,1.231340e-002
3.837649e+003,1.285872e-002
3.839577e+003,1.317898e-002
3.841506e+003,1.277590e-002
3.843434e+003,1.255279e-002
3.845363e+003,1.258516e-002
3.847291e+003,1.275413e-002
3.849219e+003,1.270162e-002
3.851148e+003,1.252124e-002
3.853076e+003,1.226909e-002
3.855005e+003,1.207683e-002
3.856933e+003,1.225661e-002
3.858862e+003,1.252049e-002
3.860790e+003,1.273130e-002
3.862719e+003,1.306058e-002
3.864647e+003,1.341926e-002
3.866576e+003,1.311269e-002
3.868504e+003,1.227863e-002
3.870433e+003,1.234323e-002
3.872361e+003,1.248329e-002
3.874290e+003,1.264028e-002
3.876218e+003,1.283671e-002
3.878146e+003,1.332771e-002
3.880075e+003,1.312679e-002
3.882003e+003,1.263694e-002
3.883932e+003,1.285975e-002
3.885860e+003,1.296061e-002
3.887789e+003,1.269438e-002
3.889717e+003,1.250494e-002
3.891646e+003,1.281589e-002
3.893574e+003,1.300421e-002
3.895503e+003,1.331063e-002
3.897431e+003,1.299434e-002
3.899360e+003,1.253151e-002
3.901288e+003,1.274741e-002
3.903217e+003,1.283872e-002
3.905145e+003,1.318834e-002
3.907073e+003,1.288657e-002
3.909002e+003,1.270059e-002
3.910930e+003,1.296997e-002
3.912859e+003,1.333666e-002
3.914787e+003,1.327913e-002
3.916716e+003,1.352787e-002
3.918644e+003,1.339127e-002
3.920573e+003,1.274781e-002
3.922501e+003,1.235226e-002
3.924430e+003,1.250508e-002
3.926358e+003,1.293982e-002
3.928287e+003,1.271636e-002
3.930215e+003,1.273031e-002
3.932144e+003,1.293996e-002
3.934072e+003,1.299946e-002
3.936000e+003,1.263574e-002
3.937929e+003,1.275737e-002
3.939857e+003,1.237813e-002
3.941786e+003,1.210661e-002
3.943714e+003,1.274406e-002
3.945643e+003,1.284609e-002
3.947571e+003,1.267538e-002
3.949500e+003,1.294180e-002
3.951428e+003,1.314079e-002
3.953357e+003,1.297044e-002
3.955285e+003,1.303763e-002
3.957214e+003,1.351735e-002
3.959142e+003,1.389416e-002
3.961071e+003,1.420497e-002
3.962999e+003,1.374964e-002
3.964927e+003,1.362171e-002
3.966856e+003,1.350364e-002
3.968784e+003,1.305556e-002
3.970713e+003,1.272758e-002
3.972641e+003,1.205929e-002
3.974570e+003,1.257591e-002
3.976498e+003,1.270837e-002
3.978427e+003,1.229111e-002
3.980355e+003,1.238038e-002
3.982284e+003,1.295914e-002
3.984212e+003,1.330957e-002
3.986141e+003,1.322987e-002
3.988069e+003,1.316754e-002
3.989998e+003,1.242873e-002
3.991926e+003,1.238072e-002
3.993854e+003,1.350289e-002
3.995783e+003,1.402846e-002
3.997711e+003,1.340644e-002
3.999640e+003,1.298519e-002
4.001568e+003,0.000000e+000
