3.991927e+002,0.000000e+000
4.011211e+002,0.000000e+000
4.030496e+002,0.000000e+000
4.049781e+002,0.000000e+000
4.069065e+002,0.000000e+000
4.088350e+002,0.000000e+000
4.107635e+002,0.000000e+000
4.126919e+002,0.000000e+000
4.146204e+002,0.000000e+000
4.165489e+002,0.000000e+000
4.184773e+002,0.000000e+000
4.204058e+002,0.000000e+000
4.223343e+002,0.000000e+000
4.242627e+002,0.000000e+000
4.261912e+002,0.000000e+000
4.281197e+002,0.000000e+000
4.300481e+002,0.000000e+000
4.319766e+002,0.000000e+000
4.339051e+002,0.000000e+000
4.358335e+002,0.000000e+000
4.377620e+002,0.000000e+000
4.396905e+002,0.000000e+000
4.416189e+002,0.000000e+000
4.435474e+002,0.000000e+000
4.454759e+002,0.000000e+000
4.474043e+002,0.000000e+000
4.493328e+002,0.000000e+000
4.512613e+002,0.000000e+000
4.531897e+002,0.000000e+000
4.551182e+002,0.000000e+000
4.570467e+002,0.000000e+000
4.589751e+002,0.000000e+000
4.609036e+002,0.000000e+000
4.628321e+002,0.000000e+000
4.647605e+002,0.000000e+000
4.666890e+002,0.000000e+000
4.686175e+002,0.000000e+000
4.705459e+002,0.000000e+000
4.724744e+002,0.000000e+000
4.744029e+002,0.000000e+000
4.763313e+002,0.000000e+000
4.782598e+002,0.000000e+000
4.801883e+002,0.000000e+000
4.821167e+002,0.000000e+000
4.840452e+002,0.000000e+000
4.859737e+002,0.000000e+000
4.879021e+002,0.000000e+000
4.898306e+002,0.000000e+000
4.917591e+002,0.000000e+000
4.936875e+002,0.000000e+000
4.956160e+002,0.000000e+000
4.975445e+002,0.000000e+000
4.994729e+002,0.000000e+000
5.014014e+002,0.000000e+000
5.033299e+002,0.000000e+000
5.052583e+002,0.000000e+000
5.071868e+002,0.000000e+000
5.091153e+002,0.000000e+000
5.110437e+002,0.000000e+000
5.129722e+002,0.000000e+000
5.149006e+002,0.000000e+000
5.168291e+002,0.000000e+000
5.187576e+002,0.000000e+000
5.206860e+002,0.000000e+000
5.226145e+002,0.000000e+000
5.245430e+002,0.000000e+000
5.264714e+002,0.000000e+000
5.283999e+002,0.000000e+000
5.303284e+002,0.000000e+000
5.322568e+002,0.000000e+000
5.341853e+002,0.000000e+000
5.361138e+002,0.000000e+000
5.380422e+002,0.000000e+000
5.399707e+002,0.000000e+000
5.418992e+002,0.000000e+000
5.438276e+002,0.000000e+000
5.457561e+002,0.000000e+000
5.476846e+002,0.000000e+000
5.496130e+002,0.000000e+000
5.515415e+002,0.000000e+000
5.534700e+002,0.000000e+000
5.553984e+002,0.000000e+000
5.573269e+002,0.000000e+000
5.592554e+002,0.000000e+000
5.611838e+002,0.000000e+000
5.631123e+002,0.000000e+000
5.650408e+002,0.000000e+000
5.669692e+002,0.000000e+000
5.688977e+002,0.000000e+000
5.708262e+002,0.000000e+000
5.727546e+002,0.000000e+000
5.746831e+002,0.000000e+000
5.766116e+002,0.000000e+000
5.785400e+002,0.000000e+000
5.804685e+002,0.000000e+000
5.823970e+002,0.000000e+000
5.843254e+002,0.000000e+000
5.862539e+002,0.000000e+000
5.881824e+002,0.000000e+000
5.901108e+002,0.000000e+000
5.920393e+002,0.000000e+000
5.939678e+002,0.000000e+000
5.958962e+002,0.000000e+000
5.978247e+002,0.000000e+000
5.997532e+002,0.000000e+000
6.016816e+002,0.000000e+000
6.036101e+002,0.000000e+000
6.055386e+002,0.000000e+000
6.074670e+002,0.000000e+000
6.093955e+002,0.000000e+000
6.113240e+002,0.000000e+000
6.132524e+002,0.000000e+000
6.151809e+002,0.000000e+000
6.171094e+002,0.000000e+000
6.190378e+002,0.000000e+000
6.209663e+002,0.000000e+000
6.228948e+002,0.000000e+000
6.248232e+002,0.000000e+000
6.267517e+002,0.000000e+000
6.286802e+002,0.000000e+000
6.306086e+002,0.000000e+000
6.325371e+002,0.000000e+000
6.344656e+002,0.000000e+000
6.363940e+002,0.000000e+000
6.383225e+002,0.000000e+000
6.402510e+002,0.000000e+000
6.421794e+002,0.000000e+000
6.441079e+002,0.000000e+000
6.460364e+002,0.000000e+000
6.479648e+002,0.000000e+000
6.498933e+002,3.201704e-001
6.518218e+002,3.173085e-001
6.537502e+002,3.149872e-001
6.556787e+002,3.155623e-001
6.576072e+002,3.143819e-001
6.595356e+002,3.112310e-001
6.614641e+002,3.083473e-001
6.633926e+002,3.074974e-001
6.653210e+002,3.057991e-001
6.672495e+002,3.035161e-001
6.691780e+002,3.013906e-001
6.711064e+002,2.993408e-001
6.730349e+002,2.976067e-001
6.749634e+002,2.952304e-001
6.768918e+002,2.928835e-001
6.788203e+002,2.918524e-001
6.807488e+002,2.905706e-001
6.826772e+002,2.878933e-001
6.846057e+002,2.871954e-001
6.865342e+002,2.863842e-001
6.884626e+002,2.847101e-001
6.903911e+002,2.831981e-001
6.923196e+002,2.813318e-001
6.942480e+002,2.790423e-001
6.961765e+002,2.768805e-001
6.981050e+002,2.753066e-001
7.000334e+002,2.749486e-001
7.019619e+002,2.733076e-001
7.038904e+002,2.725563e-001
7.058188e+002,2.725360e-001
7.077473e+002,2.701945e-001
7.096758e+002,2.676375e-001
7.116042e+002,2.651089e-001
7.135327e+002,2.637070e-001
7.154612e+002,2.621596e-001
7.173896e+002,2.586523e-001
7.193181e+002,2.554519e-001
7.212466e+002,2.555518e-001
7.231750e+002,2.557637e-001
7.251035e+002,2.545132e-001
7.270320e+002,2.535732e-001
7.289604e+002,2.523551e-001
7.308889e+002,2.506788e-001
7.328174e+002,2.484997e-001
7.347458e+002,2.474238e-001
7.366743e+002,2.465150e-001
7.386028e+002,2.454339e-001
7.405313e+002,2.432604e-001
7.424597e+002,2.423505e-001
7.443882e+002,2.415904e-001
7.463167e+002,2.403556e-001
7.482451e+002,2.392439e-001
7.501736e+002,2.385530e-001
7.521021e+002,2.367999e-001
7.540305e+002,2.349010e-001
7.559590e+002,2.328233e-001
7.578875e+002,2.306170e-001
7.598159e+002,2.294743e-001
7.617444e+002,2.281346e-001
7.636729e+002,2.257947e-001
7.656013e+002,2.241061e-001
7.675298e+002,2.221301e-001
7.694583e+002,2.201353e-001
7.713867e+002,2.179730e-001
7.733152e+002,2.150710e-001
7.752437e+002,2.128141e-001
7.771721e+002,2.121187e-001
7.791006e+002,2.114458e-001
7.810291e+002,2.094941e-001
7.829575e+002,2.072644e-001
7.848860e+002,2.050511e-001
7.868145e+002,2.026799e-001
7.887429e+002,2.004676e-001
7.906714e+002,1.979636e-001
7.925999e+002,1.946780e-001
7.945283e+002,1.915109e-001
7.964568e+002,1.903962e-001
7.983853e+002,1.900391e-001
8.003137e+002,1.883552e-001
8.022422e+002,1.868930e-001
8.041707e+002,1.862203e-001
8.060991e+002,1.858614e-001
8.080276e+002,1.860174e-001
8.099561e+002,1.853229e-001
8.118845e+002,1.840367e-001
8.138130e+002,1.823718e-001
8.157415e+002,1.816816e-001
8.176699e+002,1.803729e-001
8.195984e+002,1.773188e-001
8.215269e+002,1.751751e-001
8.234553e+002,1.744418e-001
8.253838e+002,1.724286e-001
8.273123e+002,1.706239e-001
8.292407e+002,1.690725e-001
8.311692e+002,1.670673e-001
8.330977e+002,1.653353e-001
8.350261e+002,1.633678e-001
8.369546e+002,1.611668e-001
8.388831e+002,1.594140e-001
8.408115e+002,1.579693e-001
8.427400e+002,1.572097e-001
8.446685e+002,1.566972e-001
8.465969e+002,1.555018e-001
8.485254e+002,1.543959e-001
8.504539e+002,1.536650e-001
8.523823e+002,1.535872e-001
8.543108e+002,1.537456e-001
8.562393e+002,1.532425e-001
8.581677e+002,1.521329e-001
8.600962e+002,1.506894e-001
8.620247e+002,1.485495e-001
8.639531e+002,1.464223e-001
8.658816e+002,1.444907e-001
8.678101e+002,1.426825e-001
8.697385e+002,1.412537e-001
8.716670e+002,1.396054e-001
8.735955e+002,1.374411e-001
8.755239e+002,1.361729e-001
8.774524e+002,1.359054e-001
8.793809e+002,1.355984e-001
8.813093e+002,1.353483e-001
8.832378e+002,1.357634e-001
8.851663e+002,1.348578e-001
8.870947e+002,1.338216e-001
8.890232e+002,1.333824e-001
8.909517e+002,1.328644e-001
8.928801e+002,1.320286e-001
8.948086e+002,1.304921e-001
8.967371e+002,1.290867e-001
8.986655e+002,1.275167e-001
9.005940e+002,1.257080e-001
9.025225e+002,1.245756e-001
9.044509e+002,1.241027e-001
9.063794e+002,1.236290e-001
9.083079e+002,1.234164e-001
9.102363e+002,1.229944e-001
9.121648e+002,1.228897e-001
9.140933e+002,1.233804e-001
9.160217e+002,1.238198e-001
9.179502e+002,1.238901e-001
9.198787e+002,1.241504e-001
9.218071e+002,1.242398e-001
9.237356e+002,1.237318e-001
9.256641e+002,1.223871e-001
9.275925e+002,1.217282e-001
9.295210e+002,1.212645e-001
9.314495e+002,1.206051e-001
9.333779e+002,1.201642e-001
9.353064e+002,1.195576e-001
9.372349e+002,1.188264e-001
9.391633e+002,1.179891e-001
9.410918e+002,1.177980e-001
9.430203e+002,1.185307e-001
9.449487e+002,1.190368e-001
9.468772e+002,1.191205e-001
9.488057e+002,1.188012e-001
9.507341e+002,1.194236e-001
9.526626e+002,1.203249e-001
9.545911e+002,1.206168e-001
9.565195e+002,1.204086e-001
9.584480e+002,1.205226e-001
9.603765e+002,1.214381e-001
9.623049e+002,1.220395e-001
9.642334e+002,1.226416e-001
9.661619e+002,1.235955e-001
9.680903e+002,1.252866e-001
9.700188e+002,1.264736e-001
9.719473e+002,1.269901e-001
9.738757e+002,1.278876e-001
9.758042e+002,1.289487e-001
9.777327e+002,1.296171e-001
9.796611e+002,1.298358e-001
9.815896e+002,1.305843e-001
9.835181e+002,1.318788e-001
9.854465e+002,1.339127e-001
9.873750e+002,1.361476e-001
9.893035e+002,1.380982e-001
9.912319e+002,1.396690e-001
9.931604e+002,1.404684e-001
9.950889e+002,1.412514e-001
9.970173e+002,1.421457e-001
9.989458e+002,1.430537e-001
1.000874e+003,1.439303e-001
1.002803e+003,1.462093e-001
1.004731e+003,1.491908e-001
1.006660e+003,1.528204e-001
1.008588e+003,1.578030e-001
1.010517e+003,1.627510e-001
1.012445e+003,1.670717e-001
1.014374e+003,1.699370e-001
1.016302e+003,1.720265e-001
1.018230e+003,1.733881e-001
1.020159e+003,1.737473e-001
1.022087e+003,1.743571e-001
1.024016e+003,1.752126e-001
1.025944e+003,1.764815e-001
1.027873e+003,1.783351e-001
1.029801e+003,1.800016e-001
1.031730e+003,1.806552e-001
1.033658e+003,1.789484e-001
1.035587e+003,1.754639e-001
1.037515e+003,1.719497e-001
1.039444e+003,1.682034e-001
1.041372e+003,1.650564e-001
1.043301e+003,1.638111e-001
1.045229e+003,1.646834e-001
1.047157e+003,1.656061e-001
1.049086e+003,1.652975e-001
1.051014e+003,1.644145e-001
1.052943e+003,1.628669e-001
1.054871e+003,1.608549e-001
1.056800e+003,1.586382e-001
1.058728e+003,1.563633e-001
1.060657e+003,1.543936e-001
1.062585e+003,1.528587e-001
1.064514e+003,1.515646e-001
1.066442e+003,1.499567e-001
1.068371e+003,1.491441e-001
1.070299e+003,1.494546e-001
1.072228e+003,1.498854e-001
1.074156e+003,1.506796e-001
1.076084e+003,1.517383e-001
1.078013e+003,1.521266e-001
1.079941e+003,1.525406e-001
1.081870e+003,1.526777e-001
1.083798e+003,1.519184e-001
1.085727e+003,1.519550e-001
1.087655e+003,1.504212e-001
1.089584e+003,1.482853e-001
1.091512e+003,1.476920e-001
1.093441e+003,1.464275e-001
1.095369e+003,1.451588e-001
1.097298e+003,1.439003e-001
1.099226e+003,1.416161e-001
1.101155e+003,1.396458e-001
1.103083e+003,1.387354e-001
1.105011e+003,1.378359e-001
1.106940e+003,1.372426e-001
1.108868e+003,1.373616e-001
1.110797e+003,1.380726e-001
1.112725e+003,1.384420e-001
1.114654e+003,1.381101e-001
1.116582e+003,1.387514e-001
1.118511e+003,1.397038e-001
1.120439e+003,1.394964e-001
1.122368e+003,1.384129e-001
1.124296e+003,1.369901e-001
1.126225e+003,1.355031e-001
1.128153e+003,1.333853e-001
1.130082e+003,1.310790e-001
1.132010e+003,1.291898e-001
1.133938e+003,1.279860e-001
1.135867e+003,1.264761e-001
1.137795e+003,1.256156e-001
1.139724e+003,1.254920e-001
1.141652e+003,1.249071e-001
1.143581e+003,1.244164e-001
1.145509e+003,1.243192e-001
1.147438e+003,1.247128e-001
1.149366e+003,1.252574e-001
1.151295e+003,1.251177e-001
1.153223e+003,1.246446e-001
1.155152e+003,1.240513e-001
1.157080e+003,1.229026e-001
1.159009e+003,1.216157e-001
1.160937e+003,1.210857e-001
1.162865e+003,1.203686e-001
1.164794e+003,1.195063e-001
1.166722e+003,1.192651e-001
1.168651e+003,1.192837e-001
1.170579e+003,1.199257e-001
1.172508e+003,1.208686e-001
1.174436e+003,1.218317e-001
1.176365e+003,1.224736e-001
1.178293e+003,1.237498e-001
1.180222e+003,1.250830e-001
1.182150e+003,1.261394e-001
1.184079e+003,1.280185e-001
1.186007e+003,1.303095e-001
1.187936e+003,1.318142e-001
1.189864e+003,1.331327e-001
1.191792e+003,1.349602e-001
1.193721e+003,1.367093e-001
1.195649e+003,1.384201e-001
1.197578e+003,1.395594e-001
1.199506e+003,1.406955e-001
1.201435e+003,1.423442e-001
1.203363e+003,1.436142e-001
1.205292e+003,1.444743e-001
1.207220e+003,1.455865e-001
1.209149e+003,1.463784e-001
1.211077e+003,1.469132e-001
1.213006e+003,1.472844e-001
1.214934e+003,1.472783e-001
1.216863e+003,1.469116e-001
1.218791e+003,1.466251e-001
1.220719e+003,1.467930e-001
1.222648e+003,1.465947e-001
1.224576e+003,1.461414e-001
1.226505e+003,1.457007e-001
1.228433e+003,1.453664e-001
1.230362e+003,1.451307e-001
1.232290e+003,1.456119e-001
1.234219e+003,1.460340e-001
1.236147e+003,1.458846e-001
1.238076e+003,1.451246e-001
1.240004e+003,1.442744e-001
1.241933e+003,1.434959e-001
1.243861e+003,1.420836e-001
1.245790e+003,1.411126e-001
1.247718e+003,1.407774e-001
1.249646e+003,1.406300e-001
1.251575e+003,1.406945e-001
1.253503e+003,1.409360e-001
1.255432e+003,1.412669e-001
1.257360e+003,1.414690e-001
1.259289e+003,1.413848e-001
1.261217e+003,1.411272e-001
1.263146e+003,1.404915e-001
1.265074e+003,1.404468e-001
1.267003e+003,1.413045e-001
1.268931e+003,1.421816e-001
1.270860e+003,1.424288e-001
1.272788e+003,1.418353e-001
1.274717e+003,1.404329e-001
1.276645e+003,1.383102e-001
1.278573e+003,1.354470e-001
1.280502e+003,1.326029e-001
1.282430e+003,1.296622e-001
1.284359e+003,1.267722e-001
1.286287e+003,1.240045e-001
1.288216e+003,1.208960e-001
1.290144e+003,1.180301e-001
1.292073e+003,1.151402e-001
1.294001e+003,1.125145e-001
1.295930e+003,1.101137e-001
1.297858e+003,1.074951e-001
1.299787e+003,1.048590e-001
1.301715e+003,1.029876e-001
1.303644e+003,1.016390e-001
1.305572e+003,9.992488e-002
1.307500e+003,9.833974e-002
1.309429e+003,9.716891e-002
1.311357e+003,9.615678e-002
1.313286e+003,9.503800e-002
1.315214e+003,9.398035e-002
1.317143e+003,9.310316e-002
1.319071e+003,9.259018e-002
1.321000e+003,9.220574e-002
1.322928e+003,9.201629e-002
1.324857e+003,9.192812e-002
1.326785e+003,9.157450e-002
1.328714e+003,9.094623e-002
1.330642e+003,9.064737e-002
1.332571e+003,9.052014e-002
1.334499e+003,9.033933e-002
1.336427e+003,9.013732e-002
1.338356e+003,8.994551e-002
1.340284e+003,9.023434e-002
1.342213e+003,9.081968e-002
1.344141e+003,9.104142e-002
1.346070e+003,9.166174e-002
1.347998e+003,9.289461e-002
1.349927e+003,9.413312e-002
1.351855e+003,9.548964e-002
1.353784e+003,9.702802e-002
1.355712e+003,9.821933e-002
1.357641e+003,9.921312e-002
1.359569e+003,1.002369e-001
1.361498e+003,1.006855e-001
1.363426e+003,1.007525e-001
1.365354e+003,1.006019e-001
1.367283e+003,1.001908e-001
1.369211e+003,9.982442e-002
1.371140e+003,1.000287e-001
1.373068e+003,1.002897e-001
1.374997e+003,9.999037e-002
1.376925e+003,9.941995e-002
1.378854e+003,9.848233e-002
1.380782e+003,9.741266e-002
1.382711e+003,9.633292e-002
1.384639e+003,9.517635e-002
1.386568e+003,9.368528e-002
1.388496e+003,9.184624e-002
1.390425e+003,9.041061e-002
1.392353e+003,8.941882e-002
1.394281e+003,8.877133e-002
1.396210e+003,8.817847e-002
1.398138e+003,8.746081e-002
1.400067e+003,8.725996e-002
1.401995e+003,8.741181e-002
1.403924e+003,8.741007e-002
1.405852e+003,8.741376e-002
1.407781e+003,8.736469e-002
1.409709e+003,8.738612e-002
1.411638e+003,8.756457e-002
1.413566e+003,8.785206e-002
1.415495e+003,8.812363e-002
1.417423e+003,8.850212e-002
1.419352e+003,8.928820e-002
1.421280e+003,9.039053e-002
1.423208e+003,9.145608e-002
1.425137e+003,9.313621e-002
1.427065e+003,9.462202e-002
1.428994e+003,9.543297e-002
1.430922e+003,9.553357e-002
1.432851e+003,9.512247e-002
1.434779e+003,9.461670e-002
1.436708e+003,9.435018e-002
1.438636e+003,9.436933e-002
1.440565e+003,9.431395e-002
1.442493e+003,9.405769e-002
1.444422e+003,9.440240e-002
1.446350e+003,9.502827e-002
1.448279e+003,9.586110e-002
1.450207e+003,9.633903e-002
1.452135e+003,9.586287e-002
1.454064e+003,9.500563e-002
1.455992e+003,9.361539e-002
1.457921e+003,9.222762e-002
1.459849e+003,9.146520e-002
1.461778e+003,9.071175e-002
1.463706e+003,8.898536e-002
1.465635e+003,8.637525e-002
1.467563e+003,8.251835e-002
1.469492e+003,7.797839e-002
1.471420e+003,7.365413e-002
1.473349e+003,6.962537e-002
1.475277e+003,6.627689e-002
1.477206e+003,6.388903e-002
1.479134e+003,6.224194e-002
1.481063e+003,6.114206e-002
1.482991e+003,6.006247e-002
1.484919e+003,5.946127e-002
1.486848e+003,5.924372e-002
1.488776e+003,5.938821e-002
1.490705e+003,5.973815e-002
1.492633e+003,6.055540e-002
1.494562e+003,6.200648e-002
1.496490e+003,6.348844e-002
1.498419e+003,6.547277e-002
1.500347e+003,6.832486e-002
1.502276e+003,7.180607e-002
1.504204e+003,7.484855e-002
1.506133e+003,7.793771e-002
1.508061e+003,8.259159e-002
1.509990e+003,8.881841e-002
1.511918e+003,9.463421e-002
1.513846e+003,9.746288e-002
1.515775e+003,9.575546e-002
1.517703e+003,8.940526e-002
1.519632e+003,8.054953e-002
1.521560e+003,7.200470e-002
1.523489e+003,6.498966e-002
1.525417e+003,5.923665e-002
1.527346e+003,5.434330e-002
1.529274e+003,5.002451e-002
1.531203e+003,4.669398e-002
1.533131e+003,4.438721e-002
1.535060e+003,4.302383e-002
1.536988e+003,4.255543e-002
1.538917e+003,4.256928e-002
1.540845e+003,4.267853e-002
1.542773e+003,4.278986e-002
1.544702e+003,4.348782e-002
1.546630e+003,4.414795e-002
1.548559e+003,4.438067e-002
1.550487e+003,4.517347e-002
1.552416e+003,4.661496e-002
1.554344e+003,4.817008e-002
1.556273e+003,4.959668e-002
1.558201e+003,5.098174e-002
1.560130e+003,5.220189e-002
1.562058e+003,5.356864e-002
1.563987e+003,5.506457e-002
1.565915e+003,5.643709e-002
1.567844e+003,5.803368e-002
1.569772e+003,5.976674e-002
1.571700e+003,6.164673e-002
1.573629e+003,6.389671e-002
1.575557e+003,6.671927e-002
1.577486e+003,6.956186e-002
1.579414e+003,7.237542e-002
1.581343e+003,7.555716e-002
1.583271e+003,7.868192e-002
1.585200e+003,8.135366e-002
1.587128e+003,8.382382e-002
1.589057e+003,8.655425e-002
1.590985e+003,8.968376e-002
1.592914e+003,9.276064e-002
1.594842e+003,9.540495e-002
1.596771e+003,9.779597e-002
1.598699e+003,1.005072e-001
1.600627e+003,1.030995e-001
1.602556e+003,1.050853e-001
1.604484e+003,1.066454e-001
1.606413e+003,1.079990e-001
1.608341e+003,1.093060e-001
1.610270e+003,1.104019e-001
1.612198e+003,1.108939e-001
1.614127e+003,1.108244e-001
1.616055e+003,1.108369e-001
1.617984e+003,1.107934e-001
1.619912e+003,1.109266e-001
1.621841e+003,1.112303e-001
1.623769e+003,1.113213e-001
1.625698e+003,1.117603e-001
1.627626e+003,1.125219e-001
1.629554e+003,1.133920e-001
1.631483e+003,1.144807e-001
1.633411e+003,1.150662e-001
1.635340e+003,1.155249e-001
1.637268e+003,1.157653e-001
1.639197e+003,1.158563e-001
1.641125e+003,1.156574e-001
1.643054e+003,1.153130e-001
1.644982e+003,1.149459e-001
1.646911e+003,1.142849e-001
1.648839e+003,1.136066e-001
1.650768e+003,1.128329e-001
1.652696e+003,1.120450e-001
1.654625e+003,1.110120e-001
1.656553e+003,1.099186e-001
1.658481e+003,1.086646e-001
1.660410e+003,1.073537e-001
1.662338e+003,1.061324e-001
1.664267e+003,1.050223e-001
1.666195e+003,1.040854e-001
1.668124e+003,1.031164e-001
1.670052e+003,1.023421e-001
1.671981e+003,1.020176e-001
1.673909e+003,1.014791e-001
1.675838e+003,1.009966e-001
1.677766e+003,1.009190e-001
1.679695e+003,1.009384e-001
1.681623e+003,1.011820e-001
1.683552e+003,1.017021e-001
1.685480e+003,1.025734e-001
1.687408e+003,1.035548e-001
1.689337e+003,1.044500e-001
1.691265e+003,1.052605e-001
1.693194e+003,1.059677e-001
1.695122e+003,1.064127e-001
1.697051e+003,1.067110e-001
1.698979e+003,1.068214e-001
1.700908e+003,1.067893e-001
1.702836e+003,1.064607e-001
1.704765e+003,1.058773e-001
1.706693e+003,1.050553e-001
1.708622e+003,1.037844e-001
1.710550e+003,1.018151e-001
1.712479e+003,9.979757e-002
1.714407e+003,9.801860e-002
1.716335e+003,9.603384e-002
1.718264e+003,9.358415e-002
1.720192e+003,9.125301e-002
1.722121e+003,8.867440e-002
1.724049e+003,8.570880e-002
1.725978e+003,8.280761e-002
1.727906e+003,7.961667e-002
1.729835e+003,7.645909e-002
1.731763e+003,7.343861e-002
1.733692e+003,7.048699e-002
1.735620e+003,6.765539e-002
1.737549e+003,6.503515e-002
1.739477e+003,6.270570e-002
1.741406e+003,6.038612e-002
1.743334e+003,5.775632e-002
1.745262e+003,5.539479e-002
1.747191e+003,5.327952e-002
1.749119e+003,5.116365e-002
1.751048e+003,4.924909e-002
1.752976e+003,4.743643e-002
1.754905e+003,4.554401e-002
1.756833e+003,4.385183e-002
1.758762e+003,4.242079e-002
1.760690e+003,4.087476e-002
1.762619e+003,3.914237e-002
1.764547e+003,3.739667e-002
1.766476e+003,3.555805e-002
1.768404e+003,3.407812e-002
1.770333e+003,3.256178e-002
1.772261e+003,3.104310e-002
1.774189e+003,2.959519e-002
1.776118e+003,2.798285e-002
1.778046e+003,2.653195e-002
1.779975e+003,2.538915e-002
1.781903e+003,2.427738e-002
1.783832e+003,2.306556e-002
1.785760e+003,2.165448e-002
1.787689e+003,2.062615e-002
1.789617e+003,1.980266e-002
1.791546e+003,1.899128e-002
1.793474e+003,1.824109e-002
1.795403e+003,1.747354e-002
1.797331e+003,1.676106e-002
1.799260e+003,1.608794e-002
1.801188e+003,1.555232e-002
1.803116e+003,1.505423e-002
1.805045e+003,1.454541e-002
1.806973e+003,1.417221e-002
1.808902e+003,1.370443e-002
1.810830e+003,1.330223e-002
1.812759e+003,1.316976e-002
1.814687e+003,1.298738e-002
1.816616e+003,1.272666e-002
1.818544e+003,1.248738e-002
1.820473e+003,1.235945e-002
1.822401e+003,1.238676e-002
1.824330e+003,1.222833e-002
1.826258e+003,1.199436e-002
1.828187e+003,1.191000e-002
1.830115e+003,1.188653e-002
1.832043e+003,1.191517e-002
1.833972e+003,1.189549e-002
1.835900e+003,1.182912e-002
1.837829e+003,1.178408e-002
1.839757e+003,1.175388e-002
1.841686e+003,1.167573e-002
1.843614e+003,1.173342e-002
1.845543e+003,1.171494e-002
1.847471e+003,1.163257e-002
1.849400e+003,1.145879e-002
1.851328e+003,1.153473e-002
1.853257e+003,1.173209e-002
1.855185e+003,1.178622e-002
1.857114e+003,1.173642e-002
1.859042e+003,1.176444e-002
1.860970e+003,1.180260e-002
1.862899e+003,1.185694e-002
1.864827e+003,1.189661e-002
1.866756e+003,1.203108e-002
1.868684e+003,1.205516e-002
1.870613e+003,1.192188e-002
1.872541e+003,1.178050e-002
1.874470e+003,1.169577e-002
1.876398e+003,1.166112e-002
1.878327e+003,1.179909e-002
1.880255e+003,1.169812e-002
1.882183e+003,1.155090e-002
1.884112e+003,1.140692e-002
1.886040e+003,1.148676e-002
1.887969e+003,1.174258e-002
1.889897e+003,1.182660e-002
1.891826e+003,1.184322e-002
1.893754e+003,1.176134e-002
1.895683e+003,1.182459e-002
1.897611e+003,1.191534e-002
1.899540e+003,1.189035e-002
1.901468e+003,1.180062e-002
1.903397e+003,1.173002e-002
1.905325e+003,1.167464e-002
1.907254e+003,1.170810e-002
1.909182e+003,1.192386e-002
1.911110e+003,1.194589e-002
1.913039e+003,1.197580e-002
1.914967e+003,1.198918e-002
1.916896e+003,1.187335e-002
1.918824e+003,1.192880e-002
1.920753e+003,1.209894e-002
1.922681e+003,1.202164e-002
1.924610e+003,1.202597e-002
1.926538e+003,1.214491e-002
1.928467e+003,1.206242e-002
1.930395e+003,1.204856e-002
1.932324e+003,1.211659e-002
1.934252e+003,1.200345e-002
1.936181e+003,1.200390e-002
1.938109e+003,1.200724e-002
1.940037e+003,1.203217e-002
1.941966e+003,1.226064e-002
1.943894e+003,1.246617e-002
1.945823e+003,1.237125e-002
1.947751e+003,1.236429e-002
1.949680e+003,1.253164e-002
1.951608e+003,1.244516e-002
1.953537e+003,1.240483e-002
1.955465e+003,1.255296e-002
1.957394e+003,1.269838e-002
1.959322e+003,1.274737e-002
1.961251e+003,1.278839e-002
1.963179e+003,1.259849e-002
1.965108e+003,1.264482e-002
1.967036e+003,1.279224e-002
1.968964e+003,1.271745e-002
1.970893e+003,1.270302e-002
1.972821e+003,1.292501e-002
1.974750e+003,1.292463e-002
1.976678e+003,1.283906e-002
1.978607e+003,1.288500e-002
1.980535e+003,1.299349e-002
1.982464e+003,1.324941e-002
1.984392e+003,1.323014e-002
1.986321e+003,1.321877e-002
1.988249e+003,1.308090e-002
1.990178e+003,1.296484e-002
1.992106e+003,1.302094e-002
1.994035e+003,1.329358e-002
1.995963e+003,1.345760e-002
1.997891e+003,1.336000e-002
1.999820e+003,1.331524e-002
2.001748e+003,1.355037e-002
2.003677e+003,1.376195e-002
2.005605e+003,1.377310e-002
2.007534e+003,1.378791e-002
2.009462e+003,1.382146e-002
2.011391e+003,1.397329e-002
2.013319e+003,1.382386e-002
2.015248e+003,1.381842e-002
2.017176e+003,1.398729e-002
2.019105e+003,1.404574e-002
2.021033e+003,1.411659e-002
2.022962e+003,1.409297e-002
2.024890e+003,1.406853e-002
2.026818e+003,1.429201e-002
2.028747e+003,1.439845e-002
2.030675e+003,1.434060e-002
2.032604e+003,1.440985e-002
2.034532e+003,1.450303e-002
2.036461e+003,1.448121e-002
2.038389e+003,1.445473e-002
2.040318e+003,1.459609e-002
2.042246e+003,1.478014e-002
2.044175e+003,1.477493e-002
2.046103e+003,1.472255e-002
2.048032e+003,1.464434e-002
2.049960e+003,1.454698e-002
2.051889e+003,1.460513e-002
2.053817e+003,1.474908e-002
2.055746e+003,1.499774e-002
2.057674e+003,1.518851e-002
2.059603e+003,1.517554e-002
2.061531e+003,1.505385e-002
2.063459e+003,1.484075e-002
2.065388e+003,1.469557e-002
2.067316e+003,1.474414e-002
2.069245e+003,1.498378e-002
2.071173e+003,1.504442e-002
2.073102e+003,1.504209e-002
2.075030e+003,1.504250e-002
2.076959e+003,1.503646e-002
2.078887e+003,1.513609e-002
2.080816e+003,1.521576e-002
2.082744e+003,1.525691e-002
2.084673e+003,1.526082e-002
2.086601e+003,1.513420e-002
2.088530e+003,1.499983e-002
2.090458e+003,1.516014e-002
2.092386e+003,1.517726e-002
2.094315e+003,1.499997e-002
2.096243e+003,1.488834e-002
2.098172e+003,1.493762e-002
2.100100e+003,1.503873e-002
2.102029e+003,1.500933e-002
2.103957e+003,1.507306e-002
2.105886e+003,1.499476e-002
2.107814e+003,1.479618e-002
2.109743e+003,1.491190e-002
2.111671e+003,1.501979e-002
2.113600e+003,1.486290e-002
2.115528e+003,1.479508e-002
2.117457e+003,1.485710e-002
2.119385e+003,1.482436e-002
2.121313e+003,1.481140e-002
2.123242e+003,1.496197e-002
2.125170e+003,1.494900e-002
2.127099e+003,1.479827e-002
2.129027e+003,1.493700e-002
2.130956e+003,1.509852e-002
2.132884e+003,1.502206e-002
2.134813e+003,1.475635e-002
2.136741e+003,1.456281e-002
2.138670e+003,1.464886e-002
2.140598e+003,1.482165e-002
2.142527e+003,1.488975e-002
2.144455e+003,1.471686e-002
2.146384e+003,1.464022e-002
2.148312e+003,1.474294e-002
2.150240e+003,1.466267e-002
2.152169e+003,1.455161e-002
2.154097e+003,1.457683e-002
2.156026e+003,1.444822e-002
2.157954e+003,1.422620e-002
2.159883e+003,1.418652e-002
2.161811e+003,1.429691e-002
2.163740e+003,1.439550e-002
2.165668e+003,1.442170e-002
2.167597e+003,1.438519e-002
2.169525e+003,1.428612e-002
2.171454e+003,1.427252e-002
2.173382e+003,1.433632e-002
2.175311e+003,1.429608e-002
2.177239e+003,1.413086e-002
2.179167e+003,1.403834e-002
2.181096e+003,1.388447e-002
2.183024e+003,1.394438e-002
2.184953e+003,1.398852e-002
2.186881e+003,1.386029e-002
2.188810e+003,1.378394e-002
2.190738e+003,1.379957e-002
2.192667e+003,1.360838e-002
2.194595e+003,1.354811e-002
2.196524e+003,1.349127e-002
2.198452e+003,1.345220e-002
2.200381e+003,1.367817e-002
2.202309e+003,1.366083e-002
2.204238e+003,1.339489e-002
2.206166e+003,1.320377e-002
2.208094e+003,1.312802e-002
2.210023e+003,1.316600e-002
2.211951e+003,1.329181e-002
2.213880e+003,1.310203e-002
2.215808e+003,1.301366e-002
2.217737e+003,1.310630e-002
2.219665e+003,1.314663e-002
2.221594e+003,1.295351e-002
2.223522e+003,1.288217e-002
2.225451e+003,1.304992e-002
2.227379e+003,1.304494e-002
2.229308e+003,1.303207e-002
2.231236e+003,1.308977e-002
2.233165e+003,1.292252e-002
2.235093e+003,1.271066e-002
2.237021e+003,1.252305e-002
2.238950e+003,1.232901e-002
2.240878e+003,1.214249e-002
2.242807e+003,1.210998e-002
2.244735e+003,1.242460e-002
2.246664e+003,1.237384e-002
2.248592e+003,1.213318e-002
2.250521e+003,1.223794e-002
2.252449e+003,1.232840e-002
2.254378e+003,1.230842e-002
2.256306e+003,1.244649e-002
2.258235e+003,1.236405e-002
2.260163e+003,1.212831e-002
2.262092e+003,1.204147e-002
2.264020e+003,1.206842e-002
2.265948e+003,1.224155e-002
2.267877e+003,1.224772e-002
2.269805e+003,1.212102e-002
2.271734e+003,1.213618e-002
2.273662e+003,1.210562e-002
2.275591e+003,1.206348e-002
2.277519e+003,1.187703e-002
2.279448e+003,1.179256e-002
2.281376e+003,1.192750e-002
2.283305e+003,1.212879e-002
2.285233e+003,1.230232e-002
2.287162e+003,1.227338e-002
2.289090e+003,1.207128e-002
2.291019e+003,1.196919e-002
2.292947e+003,1.190601e-002
2.294875e+003,1.186089e-002
2.296804e+003,1.190199e-002
2.298732e+003,1.182854e-002
2.300661e+003,1.185779e-002
2.302589e+003,1.189958e-002
2.304518e+003,1.187979e-002
2.306446e+003,1.199146e-002
2.308375e+003,1.185684e-002
2.310303e+003,1.178193e-002
2.312232e+003,1.153184e-002
2.314160e+003,1.144519e-002
2.316089e+003,1.167433e-002
2.318017e+003,1.178037e-002
2.319946e+003,1.174486e-002
2.321874e+003,1.178139e-002
2.323802e+003,1.184679e-002
2.325731e+003,1.173761e-002
2.327659e+003,1.154368e-002
2.329588e+003,1.136505e-002
2.331516e+003,1.152204e-002
2.333445e+003,1.185337e-002
2.335373e+003,1.178507e-002
2.337302e+003,1.166262e-002
2.339230e+003,1.171769e-002
2.341159e+003,1.173288e-002
2.343087e+003,1.180522e-002
2.345016e+003,1.187826e-002
2.346944e+003,1.174758e-002
2.348873e+003,1.163604e-002
2.350801e+003,1.177577e-002
2.352729e+003,1.160337e-002
2.354658e+003,1.142974e-002
2.356586e+003,1.149169e-002
2.358515e+003,1.157189e-002
2.360443e+003,1.157931e-002
2.362372e+003,1.162859e-002
2.364300e+003,1.160102e-002
2.366229e+003,1.161072e-002
2.368157e+003,1.154120e-002
2.370086e+003,1.162787e-002
2.372014e+003,1.146791e-002
2.373943e+003,1.136909e-002
2.375871e+003,1.147387e-002
2.377800e+003,1.139916e-002
2.379728e+003,1.140107e-002
2.381656e+003,1.135028e-002
2.383585e+003,1.114518e-002
2.385513e+003,1.135399e-002
2.387442e+003,1.160915e-002
2.389370e+003,1.185926e-002
2.391299e+003,1.188347e-002
2.393227e+003,1.167920e-002
2.395156e+003,1.164363e-002
2.397084e+003,1.160871e-002
2.399013e+003,1.181952e-002
2.400941e+003,1.196456e-002
2.402870e+003,1.185313e-002
2.404798e+003,1.185299e-002
2.406727e+003,1.183661e-002
2.408655e+003,1.176273e-002
2.410583e+003,1.172603e-002
2.412512e+003,1.184550e-002
2.414440e+003,1.203735e-002
2.416369e+003,1.173788e-002
2.418297e+003,1.170428e-002
2.420226e+003,1.196663e-002
2.422154e+003,1.213094e-002
2.424083e+003,1.215905e-002
2.426011e+003,1.217506e-002
2.427940e+003,1.222345e-002
2.429868e+003,1.219063e-002
2.431797e+003,1.238945e-002
2.433725e+003,1.226445e-002
2.435654e+003,1.183345e-002
2.437582e+003,1.187741e-002
2.439510e+003,1.200829e-002
2.441439e+003,1.198714e-002
2.443367e+003,1.209359e-002
2.445296e+003,1.237718e-002
2.447224e+003,1.230368e-002
2.449153e+003,1.211744e-002
2.451081e+003,1.242365e-002
2.453010e+003,1.274969e-002
2.454938e+003,1.286142e-002
2.456867e+003,1.275628e-002
2.458795e+003,1.267637e-002
2.460724e+003,1.279030e-002
2.462652e+003,1.270213e-002
2.464581e+003,1.257741e-002
2.466509e+003,1.266136e-002
2.468438e+003,1.272195e-002
2.470366e+003,1.282790e-002
2.472294e+003,1.288289e-002
2.474223e+003,1.263506e-002
2.476151e+003,1.266317e-002
2.478080e+003,1.306276e-002
2.480008e+003,1.321761e-002
2.481937e+003,1.312799e-002
2.483865e+003,1.297089e-002
2.485794e+003,1.303016e-002
2.487722e+003,1.333304e-002
2.489651e+003,1.340090e-002
2.491579e+003,1.351027e-002
2.493508e+003,1.345880e-002
2.495436e+003,1.339164e-002
2.497365e+003,1.334343e-002
2.499293e+003,1.350419e-002
2.501221e+003,1.361518e-002
2.503150e+003,1.366596e-002
2.505078e+003,1.339786e-002
2.507007e+003,1.351485e-002
2.508935e+003,1.380275e-002
2.510864e+003,1.387459e-002
2.512792e+003,1.409885e-002
2.514721e+003,1.381879e-002
2.516649e+003,1.354216e-002
2.518578e+003,1.366305e-002
2.520506e+003,1.383302e-002
2.522435e+003,1.390233e-002
2.524363e+003,1.413613e-002
2.526292e+003,1.447706e-002
2.528220e+003,1.440691e-002
2.530148e+003,1.426811e-002
2.532077e+003,1.420549e-002
2.534005e+003,1.417149e-002
2.535934e+003,1.412699e-002
2.537862e+003,1.418026e-002
2.539791e+003,1.442623e-002
2.541719e+003,1.453561e-002
2.543648e+003,1.453780e-002
2.545576e+003,1.464718e-002
2.547505e+003,1.452780e-002
2.549433e+003,1.453654e-002
2.551362e+003,1.470195e-002
2.553290e+003,1.469407e-002
2.555219e+003,1.494784e-002
2.557147e+003,1.487514e-002
2.559075e+003,1.455750e-002
2.561004e+003,1.473283e-002
2.562932e+003,1.468539e-002
2.564861e+003,1.482560e-002
2.566789e+003,1.488292e-002
2.568718e+003,1.463200e-002
2.570646e+003,1.484168e-002
2.572575e+003,1.510833e-002
2.574503e+003,1.518409e-002
2.576432e+003,1.517928e-002
2.578360e+003,1.523587e-002
2.580289e+003,1.541751e-002
2.582217e+003,1.539139e-002
2.584146e+003,1.546005e-002
2.586074e+003,1.563990e-002
2.588002e+003,1.548814e-002
2.589931e+003,1.549126e-002
2.591859e+003,1.557268e-002
2.593788e+003,1.546544e-002
2.595716e+003,1.519527e-002
2.597645e+003,1.537268e-002
2.599573e+003,1.566892e-002
2.601502e+003,1.583752e-002
2.603430e+003,1.603678e-002
2.605359e+003,1.582845e-002
2.607287e+003,1.539904e-002
2.609216e+003,1.514820e-002
2.611144e+003,1.542960e-002
2.613073e+003,1.591959e-002
2.615001e+003,1.609203e-002
2.616929e+003,1.612532e-002
2.618858e+003,1.602296e-002
2.620786e+003,1.603767e-002
2.622715e+003,1.614114e-002
2.624643e+003,1.613295e-002
2.626572e+003,1.616982e-002
2.628500e+003,1.613649e-002
2.630429e+003,1.608873e-002
2.632357e+003,1.607078e-002
2.634286e+003,1.597352e-002
2.636214e+003,1.600532e-002
2.638143e+003,1.607353e-002
2.640071e+003,1.589856e-002
2.642000e+003,1.599305e-002
2.643928e+003,1.627149e-002
2.645856e+003,1.627493e-002
2.647785e+003,1.635367e-002
2.649713e+003,1.652322e-002
2.651642e+003,1.654102e-002
2.653570e+003,1.656236e-002
2.655499e+003,1.651269e-002
2.657427e+003,1.631043e-002
2.659356e+003,1.649524e-002
2.661284e+003,1.698107e-002
2.663213e+003,1.692384e-002
2.665141e+003,1.678568e-002
2.667070e+003,1.659406e-002
2.668998e+003,1.639400e-002
2.670927e+003,1.665531e-002
2.672855e+003,1.698671e-002
2.674783e+003,1.690861e-002
2.676712e+003,1.676250e-002
2.678640e+003,1.680789e-002
2.680569e+003,1.704144e-002
2.682497e+003,1.726397e-002
2.684426e+003,1.712808e-002
2.686354e+003,1.701321e-002
2.688283e+003,1.701625e-002
2.690211e+003,1.721811e-002
2.692140e+003,1.732458e-002
2.694068e+003,1.735393e-002
2.695997e+003,1.765857e-002
2.697925e+003,1.778631e-002
2.699854e+003,1.748213e-002
2.701782e+003,1.730607e-002
2.703710e+003,1.752680e-002
2.705639e+003,1.788573e-002
2.707567e+003,1.781054e-002
2.709496e+003,1.791128e-002
2.711424e+003,1.796982e-002
2.713353e+003,1.771265e-002
2.715281e+003,1.767193e-002
2.717210e+003,1.774527e-002
2.719138e+003,1.778102e-002
2.721067e+003,1.808034e-002
2.722995e+003,1.833205e-002
2.724924e+003,1.845964e-002
2.726852e+003,1.846746e-002
2.728781e+003,1.843275e-002
2.730709e+003,1.855141e-002
2.732637e+003,1.880340e-002
2.734566e+003,1.875555e-002
2.736494e+003,1.871051e-002
2.738423e+003,1.889382e-002
2.740351e+003,1.897619e-002
2.742280e+003,1.902254e-002
2.744208e+003,1.933483e-002
2.746137e+003,1.951217e-002
2.748065e+003,1.930705e-002
2.749994e+003,1.920425e-002
2.751922e+003,1.915151e-002
2.753851e+003,1.929448e-002
2.755779e+003,1.948365e-002
2.757708e+003,1.953106e-002
2.759636e+003,1.970518e-002
2.761564e+003,1.987507e-002
2.763493e+003,1.965706e-002
2.765421e+003,1.975085e-002
2.767350e+003,1.978805e-002
2.769278e+003,1.964856e-002
2.771207e+003,1.964742e-002
2.773135e+003,1.985468e-002
2.775064e+003,2.015914e-002
2.776992e+003,2.040296e-002
2.778921e+003,2.055291e-002
2.780849e+003,2.065314e-002
2.782778e+003,2.058240e-002
2.784706e+003,2.060106e-002
2.786635e+003,2.088372e-002
2.788563e+003,2.101105e-002
2.790491e+003,2.133748e-002
2.792420e+003,2.180245e-002
2.794348e+003,2.176079e-002
2.796277e+003,2.191462e-002
2.798205e+003,2.222506e-002
2.800134e+003,2.246164e-002
2.802062e+003,2.274457e-002
2.803991e+003,2.285460e-002
2.805919e+003,2.312441e-002
2.807848e+003,2.305246e-002
2.809776e+003,2.306018e-002
2.811705e+003,2.369860e-002
2.813633e+003,2.438675e-002
2.815562e+003,2.472228e-002
2.817490e+003,2.491475e-002
2.819418e+003,2.501947e-002
2.821347e+003,2.514939e-002
2.823275e+003,2.571734e-002
2.825204e+003,2.639436e-002
2.827132e+003,2.660127e-002
2.829061e+003,2.707480e-002
2.830989e+003,2.790444e-002
2.832918e+003,2.871386e-002
2.834846e+003,2.951571e-002
2.836775e+003,3.021651e-002
2.838703e+003,3.093674e-002
2.840632e+003,3.157898e-002
2.842560e+003,3.177115e-002
2.844489e+003,3.233502e-002
2.846417e+003,3.329117e-002
2.848345e+003,3.386593e-002
2.850274e+003,3.373474e-002
2.852202e+003,3.369847e-002
2.854131e+003,3.376350e-002
2.856059e+003,3.383452e-002
2.857988e+003,3.385185e-002
2.859916e+003,3.417321e-002
2.861845e+003,3.474523e-002
2.863773e+003,3.505097e-002
2.865702e+003,3.547042e-002
2.867630e+003,3.583349e-002
2.869558e+003,3.625089e-002
2.871487e+003,3.651337e-002
2.873415e+003,3.688196e-002
2.875344e+003,3.756282e-002
2.877272e+003,3.769543e-002
2.879201e+003,3.720502e-002
2.881129e+003,3.697439e-002
2.883058e+003,3.741245e-002
2.884986e+003,3.797520e-002
2.886915e+003,3.846022e-002
2.888843e+003,3.893150e-002
2.890771e+003,3.919625e-002
2.892700e+003,3.940061e-002
2.894628e+003,3.997172e-002
2.896557e+003,4.058075e-002
2.898485e+003,4.155707e-002
2.900414e+003,4.232610e-002
2.902342e+003,4.229845e-002
2.904271e+003,4.255167e-002
2.906199e+003,4.345303e-002
2.908128e+003,4.434031e-002
2.910056e+003,4.471502e-002
2.911985e+003,4.528610e-002
2.913913e+003,4.679195e-002
2.915842e+003,4.759889e-002
2.917770e+003,4.801521e-002
2.919698e+003,4.876448e-002
2.921627e+003,4.916764e-002
2.923555e+003,4.900496e-002
2.925484e+003,4.902981e-002
2.927412e+003,4.934908e-002
2.929341e+003,4.970415e-002
2.931269e+003,5.021283e-002
2.933198e+003,5.052884e-002
2.935126e+003,5.042619e-002
2.937055e+003,4.997447e-002
2.938983e+003,4.969326e-002
2.940912e+003,4.990002e-002
2.942840e+003,4.948345e-002
2.944769e+003,4.884738e-002
2.946697e+003,4.904706e-002
2.948625e+003,4.947539e-002
2.950554e+003,4.968888e-002
2.952482e+003,4.934923e-002
2.954411e+003,4.878765e-002
2.956339e+003,4.872708e-002
2.958268e+003,4.886436e-002
2.960196e+003,4.897495e-002
2.962125e+003,4.907840e-002
2.964053e+003,4.936935e-002
2.965982e+003,4.916912e-002
2.967910e+003,4.859254e-002
2.969839e+003,4.837492e-002
2.971767e+003,4.788334e-002
2.973696e+003,4.744497e-002
2.975624e+003,4.720635e-002
2.977552e+003,4.658815e-002
2.979481e+003,4.607802e-002
2.981409e+003,4.590378e-002
2.983338e+003,4.528934e-002
2.985266e+003,4.438383e-002
2.987195e+003,4.422363e-002
2.989123e+003,4.402982e-002
2.991052e+003,4.336032e-002
2.992980e+003,4.314110e-002
2.994909e+003,4.301981e-002
2.996837e+003,4.283115e-002
2.998766e+003,4.280156e-002
3.000694e+003,4.279849e-002
3.002623e+003,4.281959e-002
3.004551e+003,4.300268e-002
3.006479e+003,4.350672e-002
3.008408e+003,4.370733e-002
3.010336e+003,4.383332e-002
3.012265e+003,4.398003e-002
3.014193e+003,4.406565e-002
3.016122e+003,4.459934e-002
3.018050e+003,4.485622e-002
3.019979e+003,4.460797e-002
3.021907e+003,4.464392e-002
3.023836e+003,4.522535e-002
3.025764e+003,4.518707e-002
3.027693e+003,4.524326e-002
3.029621e+003,4.609566e-002
3.031550e+003,4.683196e-002
3.033478e+003,4.710826e-002
3.035406e+003,4.727174e-002
3.037335e+003,4.730407e-002
3.039263e+003,4.787043e-002
3.041192e+003,4.888161e-002
3.043120e+003,4.937548e-002
3.045049e+003,4.957161e-002
3.046977e+003,5.024828e-002
3.048906e+003,5.051563e-002
3.050834e+003,5.085808e-002
3.052763e+003,5.153650e-002
3.054691e+003,5.224520e-002
3.056620e+003,5.263346e-002
3.058548e+003,5.328038e-002
3.060477e+003,5.393809e-002
3.062405e+003,5.452504e-002
3.064333e+003,5.537423e-002
3.066262e+003,5.610642e-002
3.068190e+003,5.640970e-002
3.070119e+003,5.669284e-002
3.072047e+003,5.723344e-002
3.073976e+003,5.790373e-002
3.075904e+003,5.858088e-002
3.077833e+003,5.899906e-002
3.079761e+003,5.947038e-002
3.081690e+003,6.009755e-002
3.083618e+003,6.114531e-002
3.085547e+003,6.151992e-002
3.087475e+003,6.154676e-002
3.089404e+003,6.219659e-002
3.091332e+003,6.335040e-002
3.093260e+003,6.455991e-002
3.095189e+003,6.556301e-002
3.097117e+003,6.654089e-002
3.099046e+003,6.730880e-002
3.100974e+003,6.784752e-002
3.102903e+003,6.872553e-002
3.104831e+003,6.950956e-002
3.106760e+003,6.966349e-002
3.108688e+003,7.039307e-002
3.110617e+003,7.156506e-002
3.112545e+003,7.261496e-002
3.114474e+003,7.340225e-002
3.116402e+003,7.381779e-002
3.118331e+003,7.499596e-002
3.120259e+003,7.637773e-002
3.122188e+003,7.773092e-002
3.124116e+003,7.885281e-002
3.126044e+003,7.937344e-002
3.127973e+003,7.961436e-002
3.129901e+003,8.050629e-002
3.131830e+003,8.148164e-002
3.133758e+003,8.217958e-002
3.135687e+003,8.288632e-002
3.137615e+003,8.384814e-002
3.139544e+003,8.517572e-002
3.141472e+003,8.632901e-002
3.143401e+003,8.686848e-002
3.145329e+003,8.728747e-002
3.147258e+003,8.850203e-002
3.149186e+003,8.969899e-002
3.151115e+003,9.054222e-002
3.153043e+003,9.098328e-002
3.154971e+003,9.176106e-002
3.156900e+003,9.284656e-002
3.158828e+003,9.366353e-002
3.160757e+003,9.417033e-002
3.162685e+003,9.518356e-002
3.164614e+003,9.683418e-002
3.166542e+003,9.858535e-002
3.168471e+003,9.987763e-002
3.170399e+003,1.003018e-001
3.172328e+003,1.008905e-001
3.174256e+003,1.016715e-001
3.176185e+003,1.022233e-001
3.178113e+003,1.036502e-001
3.180042e+003,1.053839e-001
3.181970e+003,1.059682e-001
3.183898e+003,1.059853e-001
3.185827e+003,1.068256e-001
3.187755e+003,1.078967e-001
3.189684e+003,1.090608e-001
3.191612e+003,1.104345e-001
3.193541e+003,1.115022e-001
3.195469e+003,1.126151e-001
3.197398e+003,1.134242e-001
3.199326e+003,1.142231e-001
3.201255e+003,1.153422e-001
3.203183e+003,1.164824e-001
3.205112e+003,1.170458e-001
3.207040e+003,1.178163e-001
3.208969e+003,1.186961e-001
3.210897e+003,1.193821e-001
3.212825e+003,1.200085e-001
3.214754e+003,1.202417e-001
3.216682e+003,1.205257e-001
3.218611e+003,1.213132e-001
3.220539e+003,1.225284e-001
3.222468e+003,1.236823e-001
3.224396e+003,1.236508e-001
3.226325e+003,1.239198e-001
3.228253e+003,1.247995e-001
3.230182e+003,1.255999e-001
3.232110e+003,1.267382e-001
3.234039e+003,1.273166e-001
3.235967e+003,1.281890e-001
3.237896e+003,1.287265e-001
3.239824e+003,1.286837e-001
3.241752e+003,1.290492e-001
3.243681e+003,1.290686e-001
3.245609e+003,1.296921e-001
3.247538e+003,1.299463e-001
3.249466e+003,1.299315e-001
3.251395e+003,1.307156e-001
3.253323e+003,1.308843e-001
3.255252e+003,1.311416e-001
3.257180e+003,1.319242e-001
3.259109e+003,1.320204e-001
3.261037e+003,1.323856e-001
3.262966e+003,1.332499e-001
3.264894e+003,1.340671e-001
3.266823e+003,1.342824e-001
3.268751e+003,1.343552e-001
3.270679e+003,1.345571e-001
3.272608e+003,1.342282e-001
3.274536e+003,1.342783e-001
3.276465e+003,1.343786e-001
3.278393e+003,1.350775e-001
3.280322e+003,1.355855e-001
3.282250e+003,1.355259e-001
3.284179e+003,1.360914e-001
3.286107e+003,1.366120e-001
3.288036e+003,1.366681e-001
3.289964e+003,1.373254e-001
3.291893e+003,1.376734e-001
3.293821e+003,1.374128e-001
3.295750e+003,1.366868e-001
3.297678e+003,1.366507e-001
3.299606e+003,1.368756e-001
3.301535e+003,1.374146e-001
3.303463e+003,1.376203e-001
3.305392e+003,1.378712e-001
3.307320e+003,1.378179e-001
3.309249e+003,1.381196e-001
3.311177e+003,1.387051e-001
3.313106e+003,1.391131e-001
3.315034e+003,1.391646e-001
3.316963e+003,1.391464e-001
3.318891e+003,1.397031e-001
3.320820e+003,1.404002e-001
3.322748e+003,1.405262e-001
3.324677e+003,1.403120e-001
3.326605e+003,1.402839e-001
3.328533e+003,1.404311e-001
3.330462e+003,1.410777e-001
3.332390e+003,1.420342e-001
3.334319e+003,1.426324e-001
3.336247e+003,1.425507e-001
3.338176e+003,1.425144e-001
3.340104e+003,1.427394e-001
3.342033e+003,1.429091e-001
3.343961e+003,1.429720e-001
3.345890e+003,1.430335e-001
3.347818e+003,1.427750e-001
3.349747e+003,1.431681e-001
3.351675e+003,1.449080e-001
3.353604e+003,1.455258e-001
3.355532e+003,1.451509e-001
3.357460e+003,1.449465e-001
3.359389e+003,1.443792e-001
3.361317e+003,1.443723e-001
3.363246e+003,1.449963e-001
3.365174e+003,1.457065e-001
3.367103e+003,1.458571e-001
3.369031e+003,1.458658e-001
3.370960e+003,1.459643e-001
3.372888e+003,1.460242e-001
3.374817e+003,1.462699e-001
3.376745e+003,1.462840e-001
3.378674e+003,1.455581e-001
3.380602e+003,1.460303e-001
3.382531e+003,1.458245e-001
3.384459e+003,1.456923e-001
3.386387e+003,1.457800e-001
3.388316e+003,1.451776e-001
3.390244e+003,1.444594e-001
3.392173e+003,1.432333e-001
3.394101e+003,1.426433e-001
3.396030e+003,1.435754e-001
3.397958e+003,1.436314e-001
3.399887e+003,1.436256e-001
3.401815e+003,1.430802e-001
3.403744e+003,1.423526e-001
3.405672e+003,1.416812e-001
3.407601e+003,1.419910e-001
3.409529e+003,1.420369e-001
3.411458e+003,1.413624e-001
3.413386e+003,1.406242e-001
3.415314e+003,1.397750e-001
3.417243e+003,1.400015e-001
3.419171e+003,1.395004e-001
3.421100e+003,1.383830e-001
3.423028e+003,1.374097e-001
3.424957e+003,1.363906e-001
3.426885e+003,1.351787e-001
3.428814e+003,1.339293e-001
3.430742e+003,1.334501e-001
3.432671e+003,1.333899e-001
3.434599e+003,1.325877e-001
3.436528e+003,1.322626e-001
3.438456e+003,1.319278e-001
3.440385e+003,1.306087e-001
3.442313e+003,1.306292e-001
3.444241e+003,1.301976e-001
3.446170e+003,1.294037e-001
3.448098e+003,1.290929e-001
3.450027e+003,1.282060e-001
3.451955e+003,1.266099e-001
3.453884e+003,1.261059e-001
3.455812e+003,1.251283e-001
3.457741e+003,1.232780e-001
3.459669e+003,1.232068e-001
3.461598e+003,1.234370e-001
3.463526e+003,1.226245e-001
3.465455e+003,1.212986e-001
3.467383e+003,1.199708e-001
3.469312e+003,1.193239e-001
3.471240e+003,1.184930e-001
3.473168e+003,1.175302e-001
3.475097e+003,1.164179e-001
3.477025e+003,1.156222e-001
3.478954e+003,1.153315e-001
3.480882e+003,1.142085e-001
3.482811e+003,1.131992e-001
3.484739e+003,1.130786e-001
3.486668e+003,1.122539e-001
3.488596e+003,1.103635e-001
3.490525e+003,1.092605e-001
3.492453e+003,1.091643e-001
3.494382e+003,1.081489e-001
3.496310e+003,1.065132e-001
3.498239e+003,1.052450e-001
3.500167e+003,1.051730e-001
3.502095e+003,1.043089e-001
3.504024e+003,1.033428e-001
3.505952e+003,1.029659e-001
3.507881e+003,1.022215e-001
3.509809e+003,1.013739e-001
3.511738e+003,9.997748e-002
3.513666e+003,9.891897e-002
3.515595e+003,9.754765e-002
3.517523e+003,9.630007e-002
3.519452e+003,9.477440e-002
3.521380e+003,9.343769e-002
3.523309e+003,9.296359e-002
3.525237e+003,9.240327e-002
3.527166e+003,9.118148e-002
3.529094e+003,8.994494e-002
3.531022e+003,8.913554e-002
3.532951e+003,8.831574e-002
3.534879e+003,8.766312e-002
3.536808e+003,8.632877e-002
3.538736e+003,8.467717e-002
3.540665e+003,8.386055e-002
3.542593e+003,8.312944e-002
3.544522e+003,8.185446e-002
3.546450e+003,7.983583e-002
3.548379e+003,7.830948e-002
3.550307e+003,7.730310e-002
3.552236e+003,7.643996e-002
3.554164e+003,7.594419e-002
3.556093e+003,7.506736e-002
3.558021e+003,7.451139e-002
3.559949e+003,7.345086e-002
3.561878e+003,7.216218e-002
3.563806e+003,7.059343e-002
3.565735e+003,6.956991e-002
3.567663e+003,6.944805e-002
3.569592e+003,6.842799e-002
3.571520e+003,6.704672e-002
3.573449e+003,6.515890e-002
3.575377e+003,6.369369e-002
3.577306e+003,6.318305e-002
3.579234e+003,6.261716e-002
3.581163e+003,6.138239e-002
3.583091e+003,5.950150e-002
3.585020e+003,5.771428e-002
3.586948e+003,5.758904e-002
3.588876e+003,5.818049e-002
3.590805e+003,5.718370e-002
3.592733e+003,5.531646e-002
3.594662e+003,5.400296e-002
3.596590e+003,5.282074e-002
3.598519e+003,5.150315e-002
3.600447e+003,5.080936e-002
3.602376e+003,5.030303e-002
3.604304e+003,4.864239e-002
3.606233e+003,4.771936e-002
3.608161e+003,4.744608e-002
3.610090e+003,4.661765e-002
3.612018e+003,4.537673e-002
3.613947e+003,4.421006e-002
3.615875e+003,4.316873e-002
3.617803e+003,4.184871e-002
3.619732e+003,4.100755e-002
3.621660e+003,4.072032e-002
3.623589e+003,3.999072e-002
3.625517e+003,3.882261e-002
3.627446e+003,3.777050e-002
3.629374e+003,3.668636e-002
3.631303e+003,3.587016e-002
3.633231e+003,3.438845e-002
3.635160e+003,3.297919e-002
3.637088e+003,3.163047e-002
3.639017e+003,3.095239e-002
3.640945e+003,3.020095e-002
3.642874e+003,2.892896e-002
3.644802e+003,2.819112e-002
3.646730e+003,2.758730e-002
3.648659e+003,2.681276e-002
3.650587e+003,2.584490e-002
3.652516e+003,2.461272e-002
3.654444e+003,2.381273e-002
3.656373e+003,2.311005e-002
3.658301e+003,2.211825e-002
3.660230e+003,2.079991e-002
3.662158e+003,1.972082e-002
3.664087e+003,1.885405e-002
3.666015e+003,1.783170e-002
3.667944e+003,1.676353e-002
3.669872e+003,1.601536e-002
3.671801e+003,1.580914e-002
3.673729e+003,1.547701e-002
3.675657e+003,1.485313e-002
3.677586e+003,1.409410e-002
3.679514e+003,1.295235e-002
3.681443e+003,1.217724e-002
3.683371e+003,1.155392e-002
3.685300e+003,1.142467e-002
3.687228e+003,1.090918e-002
3.689157e+003,1.076643e-002
3.691085e+003,1.047734e-002
3.693014e+003,9.695928e-003
3.694942e+003,9.291766e-003
3.696871e+003,9.054031e-003
3.698799e+003,8.999565e-003
3.700728e+003,8.892276e-003
3.702656e+003,8.837898e-003
3.704584e+003,8.970440e-003
3.706513e+003,8.905399e-003
3.708441e+003,8.306479e-003
3.710370e+003,7.751760e-003
3.712298e+003,7.737188e-003
3.714227e+003,7.572585e-003
3.716155e+003,7.573597e-003
3.718084e+003,7.097572e-003
3.720012e+003,6.653056e-003
3.721941e+003,6.921731e-003
3.723869e+003,7.053723e-003
3.725798e+003,6.958530e-003
3.727726e+003,7.041095e-003
3.729655e+003,6.942941e-003
3.731583e+003,6.265128e-003
3.733511e+003,6.478605e-003
3.735440e+003,6.767297e-003
3.737368e+003,7.053050e-003
3.739297e+003,6.778471e-003
3.741225e+003,5.907001e-003
3.743154e+003,5.701627e-003
3.745082e+003,5.678900e-003
3.747011e+003,5.591592e-003
3.748939e+003,5.375934e-003
3.750868e+003,5.227549e-003
3.752796e+003,4.748627e-003
3.754725e+003,4.794891e-003
3.756653e+003,4.535194e-003
3.758582e+003,4.529101e-003
3.760510e+003,4.779949e-003
3.762438e+003,4.943932e-003
3.764367e+003,4.571022e-003
3.766295e+003,4.011051e-003
3.768224e+003,4.173239e-003
3.770152e+003,4.575107e-003
3.772081e+003,4.642484e-003
3.774009e+003,4.036601e-003
3.775938e+003,3.831875e-003
3.777866e+003,4.238646e-003
3.779795e+003,3.989281e-003
3.781723e+003,3.768936e-003
3.783652e+003,3.766228e-003
3.785580e+003,3.913213e-003
3.787509e+003,3.774317e-003
3.789437e+003,3.599181e-003
3.791365e+003,3.575160e-003
3.793294e+003,3.903416e-003
3.795222e+003,4.061250e-003
3.797151e+003,3.443085e-003
3.799079e+003,3.514428e-003
3.801008e+003,4.554481e-003
3.802936e+003,4.618037e-003
3.804865e+003,4.172838e-003
3.806793e+003,3.586920e-003
3.808722e+003,3.242277e-003
3.810650e+003,3.778528e-003
3.812579e+003,4.188829e-003
3.814507e+003,3.537711e-003
3.816436e+003,3.227055e-003
3.818364e+003,4.085833e-003
3.820292e+003,4.340608e-003
3.822221e+003,3.867310e-003
3.824149e+003,3.637871e-003
3.826078e+003,3.701326e-003
3.828006e+003,3.526754e-003
3.829935e+003,3.391288e-003
3.831863e+003,4.188561e-003
3.833792e+003,4.253402e-003
3.835720e+003,3.538012e-003
3.837649e+003,3.437107e-003
3.839577e+003,3.062751e-003
3.841506e+003,2.904479e-003
3.843434e+003,3.561697e-003
3.845363e+003,3.481327e-003
3.847291e+003,3.180090e-003
3.849219e+003,3.411291e-003
3.851148e+003,3.956712e-003
3.853076e+003,3.549203e-003
3.855005e+003,3.348913e-003
3.856933e+003,3.338195e-003
3.858862e+003,3.778962e-003
3.860790e+003,3.776155e-003
3.862719e+003,3.374024e-003
3.864647e+003,2.926795e-003
3.866576e+003,2.792450e-003
3.868504e+003,3.089947e-003
3.870433e+003,3.141274e-003
3.872361e+003,3.232363e-003
3.874290e+003,2.770941e-003
3.876218e+003,3.122885e-003
3.878146e+003,3.149217e-003
3.880075e+003,2.627176e-003
3.882003e+003,2.616076e-003
3.883932e+003,3.202220e-003
3.885860e+003,3.658320e-003
3.887789e+003,3.763087e-003
3.889717e+003,3.699188e-003
3.891646e+003,3.279500e-003
3.893574e+003,2.995719e-003
3.895503e+003,3.780934e-003
3.897431e+003,3.824154e-003
3.899360e+003,3.063118e-003
3.901288e+003,3.503739e-003
3.903217e+003,3.505343e-003
3.905145e+003,2.834570e-003
3.907073e+003,2.489591e-003
3.909002e+003,2.284227e-003
3.910930e+003,2.500555e-003
3.912859e+003,3.272956e-003
3.914787e+003,3.805201e-003
3.916716e+003,4.453004e-003
3.918644e+003,4.252131e-003
3.920573e+003,3.139271e-003
3.922501e+003,3.046100e-003
3.924430e+003,3.029550e-003
3.926358e+003,2.999789e-003
3.928287e+003,3.196779e-003
3.930215e+003,2.326498e-003
3.932144e+003,2.174855e-003
3.934072e+003,3.727092e-003
3.936000e+003,4.295129e-003
3.937929e+003,3.483498e-003
3.939857e+003,3.179089e-003
3.941786e+003,3.470138e-003
3.943714e+003,3.059280e-003
3.945643e+003,2.706654e-003
3.947571e+003,3.113507e-003
3.949500e+003,2.951147e-003
3.951428e+003,2.577710e-003
3.953357e+003,2.477661e-003
3.955285e+003,2.970797e-003
3.957214e+003,3.614483e-003
3.959142e+003,3.310549e-003
3.961071e+003,2.964024e-003
3.962999e+003,3.452603e-003
3.964927e+003,3.471741e-003
3.966856e+003,2.559945e-003
3.968784e+003,2.568277e-003
3.970713e+003,3.106532e-003
3.972641e+003,3.415332e-003
3.974570e+003,3.138838e-003
3.976498e+003,2.597709e-003
3.978427e+003,2.232535e-003
3.980355e+003,2.461332e-003
3.982284e+003,3.057478e-003
3.984212e+003,3.458381e-003
3.986141e+003,3.784711e-003
3.988069e+003,3.794070e-003
3.989998e+003,3.803329e-003
3.991926e+003,3.840266e-003
3.993854e+003,3.602087e-003
3.995783e+003,3.648296e-003
3.997711e+003,2.982673e-003
3.999640e+003,2.296018e-003
4.001568e+003,0.000000e+000
