3.991927e+002,0.000000e+000
4.011211e+002,0.000000e+000
4.030496e+002,0.000000e+000
4.049781e+002,0.000000e+000
4.069065e+002,0.000000e+000
4.088350e+002,0.000000e+000
4.107635e+002,0.000000e+000
4.126919e+002,0.000000e+000
4.146204e+002,0.000000e+000
4.165489e+002,0.000000e+000
4.184773e+002,0.000000e+000
4.204058e+002,0.000000e+000
4.223343e+002,0.000000e+000
4.242627e+002,0.000000e+000
4.261912e+002,0.000000e+000
4.281197e+002,0.000000e+000
4.300481e+002,0.000000e+000
4.319766e+002,0.000000e+000
4.339051e+002,0.000000e+000
4.358335e+002,0.000000e+000
4.377620e+002,0.000000e+000
4.396905e+002,0.000000e+000
4.416189e+002,0.000000e+000
4.435474e+002,0.000000e+000
4.454759e+002,0.000000e+000
4.474043e+002,0.000000e+000
4.493328e+002,0.000000e+000
4.512613e+002,0.000000e+000
4.531897e+002,0.000000e+000
4.551182e+002,0.000000e+000
4.570467e+002,0.000000e+000
4.589751e+002,0.000000e+000
4.609036e+002,0.000000e+000
4.628321e+002,0.000000e+000
4.647605e+002,0.000000e+000
4.666890e+002,0.000000e+000
4.686175e+002,0.000000e+000
4.705459e+002,0.000000e+000
4.724744e+002,0.000000e+000
4.744029e+002,0.000000e+000
4.763313e+002,0.000000e+000
4.782598e+002,0.000000e+000
4.801883e+002,0.000000e+000
4.821167e+002,0.000000e+000
4.840452e+002,0.000000e+000
4.859737e+002,0.000000e+000
4.879021e+002,0.000000e+000
4.898306e+002,0.000000e+000
4.917591e+002,0.000000e+000
4.936875e+002,0.000000e+000
4.956160e+002,0.000000e+000
4.975445e+002,0.000000e+000
4.994729e+002,0.000000e+000
5.014014e+002,0.000000e+000
5.033299e+002,0.000000e+000
5.052583e+002,0.000000e+000
5.071868e+002,0.000000e+000
5.091153e+002,0.000000e+000
5.110437e+002,0.000000e+000
5.129722e+002,0.000000e+000
5.149006e+002,0.000000e+000
5.168291e+002,0.000000e+000
5.187576e+002,0.000000e+000
5.206860e+002,0.000000e+000
5.226145e+002,0.000000e+000
5.245430e+002,0.000000e+000
5.264714e+002,0.000000e+000
5.283999e+002,0.000000e+000
5.303284e+002,0.000000e+000
5.322568e+002,0.000000e+000
5.341853e+002,0.000000e+000
5.361138e+002,0.000000e+000
5.380422e+002,0.000000e+000
5.399707e+002,0.000000e+000
5.418992e+002,0.000000e+000
5.438276e+002,0.000000e+000
5.457561e+002,0.000000e+000
5.476846e+002,0.000000e+000
5.496130e+002,0.000000e+000
5.515415e+002,0.000000e+000
5.534700e+002,0.000000e+000
5.553984e+002,0.000000e+000
5.573269e+002,0.000000e+000
5.592554e+002,0.000000e+000
5.611838e+002,0.000000e+000
5.631123e+002,0.000000e+000
5.650408e+002,0.000000e+000
5.669692e+002,0.000000e+000
5.688977e+002,0.000000e+000
5.708262e+002,0.000000e+000
5.727546e+002,0.000000e+000
5.746831e+002,0.000000e+000
5.766116e+002,0.000000e+000
5.785400e+002,0.000000e+000
5.804685e+002,0.000000e+000
5.823970e+002,0.000000e+000
5.843254e+002,0.000000e+000
5.862539e+002,0.000000e+000
5.881824e+002,0.000000e+000
5.901108e+002,0.000000e+000
5.920393e+002,0.000000e+000
5.939678e+002,0.000000e+000
5.958962e+002,0.000000e+000
5.978247e+002,0.000000e+000
5.997532e+002,0.000000e+000
6.016816e+002,0.000000e+000
6.036101e+002,0.000000e+000
6.055386e+002,0.000000e+000
6.074670e+002,0.000000e+000
6.093955e+002,0.000000e+000
6.113240e+002,0.000000e+000
6.132524e+002,0.000000e+000
6.151809e+002,0.000000e+000
6.171094e+002,0.000000e+000
6.190378e+002,0.000000e+000
6.209663e+002,0.000000e+000
6.228948e+002,0.000000e+000
6.248232e+002,0.000000e+000
6.267517e+002,0.000000e+000
6.286802e+002,0.000000e+000
6.306086e+002,0.000000e+000
6.325371e+002,0.000000e+000
6.344656e+002,0.000000e+000
6.363940e+002,0.000000e+000
6.383225e+002,0.000000e+000
6.402510e+002,0.000000e+000
6.421794e+002,0.000000e+000
6.441079e+002,0.000000e+000
6.460364e+002,0.000000e+000
6.479648e+002,0.000000e+000
6.498933e+002,1.494816e-001
6.518218e+002,1.477730e-001
6.537502e+002,1.444316e-001
6.556787e+002,1.424860e-001
6.576072e+002,1.423457e-001
6.595356e+002,1.411104e-001
6.614641e+002,1.393252e-001
6.633926e+002,1.382754e-001
6.653210e+002,1.372663e-001
6.672495e+002,1.361334e-001
6.691780e+002,1.339765e-001
6.711064e+002,1.328105e-001
6.730349e+002,1.323781e-001
6.749634e+002,1.300284e-001
6.768918e+002,1.287684e-001
6.788203e+002,1.289273e-001
6.807488e+002,1.285140e-001
6.826772e+002,1.277169e-001
6.846057e+002,1.268888e-001
6.865342e+002,1.264992e-001
6.884626e+002,1.260423e-001
6.903911e+002,1.260603e-001
6.923196e+002,1.250951e-001
6.942480e+002,1.243454e-001
6.961765e+002,1.232307e-001
6.981050e+002,1.214144e-001
7.000334e+002,1.203261e-001
7.019619e+002,1.199798e-001
7.038904e+002,1.191996e-001
7.058188e+002,1.181125e-001
7.077473e+002,1.184724e-001
7.096758e+002,1.189981e-001
7.116042e+002,1.194577e-001
7.135327e+002,1.189502e-001
7.154612e+002,1.170445e-001
7.173896e+002,1.168130e-001
7.193181e+002,1.172246e-001
7.212466e+002,1.173300e-001
7.231750e+002,1.172890e-001
7.251035e+002,1.175478e-001
7.270320e+002,1.186291e-001
7.289604e+002,1.203887e-001
7.308889e+002,1.208088e-001
7.328174e+002,1.203891e-001
7.347458e+002,1.207585e-001
7.366743e+002,1.214320e-001
7.386028e+002,1.225416e-001
7.405313e+002,1.237380e-001
7.424597e+002,1.250629e-001
7.443882e+002,1.263718e-001
7.463167e+002,1.279342e-001
7.482451e+002,1.293296e-001
7.501736e+002,1.288270e-001
7.521021e+002,1.283285e-001
7.540305e+002,1.286080e-001
7.559590e+002,1.280800e-001
7.578875e+002,1.269314e-001
7.598159e+002,1.257809e-001
7.617444e+002,1.242961e-001
7.636729e+002,1.239190e-001
7.656013e+002,1.243089e-001
7.675298e+002,1.239184e-001
7.694583e+002,1.224459e-001
7.713867e+002,1.219220e-001
7.733152e+002,1.224609e-001
7.752437e+002,1.225722e-001
7.771721e+002,1.224452e-001
7.791006e+002,1.233615e-001
7.810291e+002,1.250809e-001
7.829575e+002,1.256213e-001
7.848860e+002,1.247709e-001
7.868145e+002,1.246582e-001
7.887429e+002,1.252680e-001
7.906714e+002,1.248148e-001
7.925999e+002,1.237428e-001
7.945283e+002,1.216093e-001
7.964568e+002,1.204238e-001
7.983853e+002,1.208271e-001
8.003137e+002,1.208784e-001
8.022422e+002,1.212770e-001
8.041707e+002,1.229912e-001
8.060991e+002,1.245244e-001
8.080276e+002,1.273904e-001
8.099561e+002,1.296520e-001
8.118845e+002,1.312559e-001
8.138130e+002,1.324496e-001
8.157415e+002,1.331974e-001
8.176699e+002,1.330426e-001
8.195984e+002,1.321448e-001
8.215269e+002,1.320056e-001
8.234553e+002,1.306062e-001
8.253838e+002,1.282992e-001
8.273123e+002,1.259558e-001
8.292407e+002,1.236098e-001
8.311692e+002,1.214885e-001
8.330977e+002,1.201069e-001
8.350261e+002,1.198232e-001
8.369546e+002,1.192491e-001
8.388831e+002,1.173731e-001
8.408115e+002,1.164166e-001
8.427400e+002,1.172179e-001
8.446685e+002,1.186599e-001
8.465969e+002,1.201756e-001
8.485254e+002,1.219676e-001
8.504539e+002,1.229439e-001
8.523823e+002,1.241017e-001
8.543108e+002,1.238518e-001
8.562393e+002,1.229562e-001
8.581677e+002,1.229774e-001
8.600962e+002,1.214017e-001
8.620247e+002,1.188721e-001
8.639531e+002,1.176261e-001
8.658816e+002,1.169372e-001
8.678101e+002,1.166531e-001
8.697385e+002,1.166551e-001
8.716670e+002,1.176451e-001
8.735955e+002,1.190314e-001
8.755239e+002,1.174934e-001
8.774524e+002,1.146322e-001
8.793809e+002,1.130751e-001
8.813093e+002,1.127629e-001
8.832378e+002,1.129133e-001
8.851663e+002,1.125588e-001
8.870947e+002,1.124794e-001
8.890232e+002,1.122774e-001
8.909517e+002,1.114796e-001
8.928801e+002,1.107811e-001
8.948086e+002,1.108883e-001
8.967371e+002,1.110497e-001
8.986655e+002,1.111422e-001
9.005940e+002,1.108285e-001
9.025225e+002,1.110093e-001
9.044509e+002,1.120589e-001
9.063794e+002,1.136080e-001
9.083079e+002,1.153662e-001
9.102363e+002,1.165789e-001
9.121648e+002,1.177199e-001
9.140933e+002,1.190478e-001
9.160217e+002,1.194609e-001
9.179502e+002,1.189448e-001
9.198787e+002,1.185042e-001
9.218071e+002,1.182493e-001
9.237356e+002,1.181084e-001
9.256641e+002,1.179453e-001
9.275925e+002,1.182512e-001
9.295210e+002,1.183955e-001
9.314495e+002,1.188590e-001
9.333779e+002,1.190334e-001
9.353064e+002,1.188747e-001
9.372349e+002,1.188179e-001
9.391633e+002,1.187210e-001
9.410918e+002,1.193389e-001
9.430203e+002,1.199842e-001
9.449487e+002,1.208076e-001
9.468772e+002,1.212270e-001
9.488057e+002,1.217581e-001
9.507341e+002,1.225531e-001
9.526626e+002,1.236022e-001
9.545911e+002,1.247011e-001
9.565195e+002,1.256213e-001
9.584480e+002,1.267325e-001
9.603765e+002,1.280352e-001
9.623049e+002,1.291749e-001
9.642334e+002,1.302589e-001
9.661619e+002,1.318748e-001
9.680903e+002,1.329562e-001
9.700188e+002,1.333949e-001
9.719473e+002,1.338180e-001
9.738757e+002,1.340361e-001
9.758042e+002,1.342762e-001
9.777327e+002,1.342780e-001
9.796611e+002,1.351911e-001
9.815896e+002,1.369588e-001
9.835181e+002,1.381813e-001
9.854465e+002,1.390037e-001
9.873750e+002,1.400991e-001
9.893035e+002,1.418565e-001
9.912319e+002,1.436702e-001
9.931604e+002,1.449071e-001
9.950889e+002,1.461582e-001
9.970173e+002,1.477854e-001
9.989458e+002,1.496506e-001
1.000874e+003,1.516001e-001
1.002803e+003,1.540392e-001
1.004731e+003,1.562707e-001
1.006660e+003,1.587767e-001
1.008588e+003,1.624744e-001
1.010517e+003,1.663287e-001
1.012445e+003,1.696846e-001
1.014374e+003,1.734018e-001
1.016302e+003,1.766159e-001
1.018230e+003,1.797967e-001
1.020159e+003,1.844736e-001
1.022087e+003,1.889927e-001
1.024016e+003,1.932820e-001
1.025944e+003,1.976146e-001
1.027873e+003,2.020136e-001
1.029801e+003,2.044145e-001
1.031730e+003,2.040824e-001
1.033658e+003,2.016975e-001
1.035587e+003,1.958001e-001
1.037515e+003,1.879822e-001
1.039444e+003,1.809693e-001
1.041372e+003,1.745555e-001
1.043301e+003,1.697125e-001
1.045229e+003,1.664948e-001
1.047157e+003,1.629161e-001
1.049086e+003,1.607959e-001
1.051014e+003,1.598231e-001
1.052943e+003,1.585357e-001
1.054871e+003,1.569354e-001
1.056800e+003,1.560000e-001
1.058728e+003,1.554966e-001
1.060657e+003,1.553525e-001
1.062585e+003,1.557628e-001
1.064514e+003,1.554659e-001
1.066442e+003,1.551109e-001
1.068371e+003,1.558281e-001
1.070299e+003,1.563674e-001
1.072228e+003,1.570949e-001
1.074156e+003,1.577053e-001
1.076084e+003,1.569548e-001
1.078013e+003,1.566576e-001
1.079941e+003,1.559561e-001
1.081870e+003,1.552725e-001
1.083798e+003,1.552376e-001
1.085727e+003,1.554713e-001
1.087655e+003,1.544872e-001
1.089584e+003,1.544043e-001
1.091512e+003,1.541741e-001
1.093441e+003,1.529975e-001
1.095369e+003,1.522555e-001
1.097298e+003,1.517128e-001
1.099226e+003,1.515642e-001
1.101155e+003,1.520999e-001
1.103083e+003,1.530239e-001
1.105011e+003,1.538082e-001
1.106940e+003,1.553707e-001
1.108868e+003,1.578563e-001
1.110797e+003,1.603418e-001
1.112725e+003,1.616617e-001
1.114654e+003,1.626713e-001
1.116582e+003,1.637684e-001
1.118511e+003,1.647013e-001
1.120439e+003,1.646881e-001
1.122368e+003,1.626208e-001
1.124296e+003,1.589558e-001
1.126225e+003,1.545702e-001
1.128153e+003,1.502876e-001
1.130082e+003,1.458135e-001
1.132010e+003,1.419880e-001
1.133938e+003,1.398866e-001
1.135867e+003,1.389451e-001
1.137795e+003,1.388527e-001
1.139724e+003,1.393294e-001
1.141652e+003,1.401079e-001
1.143581e+003,1.413778e-001
1.145509e+003,1.429827e-001
1.147438e+003,1.447690e-001
1.149366e+003,1.459643e-001
1.151295e+003,1.463813e-001
1.153223e+003,1.455011e-001
1.155152e+003,1.432889e-001
1.157080e+003,1.403346e-001
1.159009e+003,1.373791e-001
1.160937e+003,1.349925e-001
1.162865e+003,1.331873e-001
1.164794e+003,1.315822e-001
1.166722e+003,1.312122e-001
1.168651e+003,1.318857e-001
1.170579e+003,1.322643e-001
1.172508e+003,1.332247e-001
1.174436e+003,1.344980e-001
1.176365e+003,1.352818e-001
1.178293e+003,1.363868e-001
1.180222e+003,1.380979e-001
1.182150e+003,1.405967e-001
1.184079e+003,1.429111e-001
1.186007e+003,1.444111e-001
1.187936e+003,1.454585e-001
1.189864e+003,1.472559e-001
1.191792e+003,1.490917e-001
1.193721e+003,1.511494e-001
1.195649e+003,1.537120e-001
1.197578e+003,1.557424e-001
1.199506e+003,1.570676e-001
1.201435e+003,1.585829e-001
1.203363e+003,1.601287e-001
1.205292e+003,1.613069e-001
1.207220e+003,1.619882e-001
1.209149e+003,1.616396e-001
1.211077e+003,1.602816e-001
1.213006e+003,1.592996e-001
1.214934e+003,1.581055e-001
1.216863e+003,1.571096e-001
1.218791e+003,1.564161e-001
1.220719e+003,1.551683e-001
1.222648e+003,1.540860e-001
1.224576e+003,1.537851e-001
1.226505e+003,1.538029e-001
1.228433e+003,1.543645e-001
1.230362e+003,1.553301e-001
1.232290e+003,1.553605e-001
1.234219e+003,1.543811e-001
1.236147e+003,1.529026e-001
1.238076e+003,1.509636e-001
1.240004e+003,1.487119e-001
1.241933e+003,1.460458e-001
1.243861e+003,1.437122e-001
1.245790e+003,1.424473e-001
1.247718e+003,1.420482e-001
1.249646e+003,1.421635e-001
1.251575e+003,1.425949e-001
1.253503e+003,1.433995e-001
1.255432e+003,1.449969e-001
1.257360e+003,1.472432e-001
1.259289e+003,1.494118e-001
1.261217e+003,1.514838e-001
1.263146e+003,1.534710e-001
1.265074e+003,1.551284e-001
1.267003e+003,1.562127e-001
1.268931e+003,1.564732e-001
1.270860e+003,1.548589e-001
1.272788e+003,1.516570e-001
1.274717e+003,1.474784e-001
1.276645e+003,1.422965e-001
1.278573e+003,1.368143e-001
1.280502e+003,1.317677e-001
1.282430e+003,1.268352e-001
1.284359e+003,1.222606e-001
1.286287e+003,1.183192e-001
1.288216e+003,1.144492e-001
1.290144e+003,1.104025e-001
1.292073e+003,1.061945e-001
1.294001e+003,1.024768e-001
1.295930e+003,9.939308e-002
1.297858e+003,9.631062e-002
1.299787e+003,9.368548e-002
1.301715e+003,9.158514e-002
1.303644e+003,8.957224e-002
1.305572e+003,8.763847e-002
1.307500e+003,8.610627e-002
1.309429e+003,8.483429e-002
1.311357e+003,8.349966e-002
1.313286e+003,8.232874e-002
1.315214e+003,8.146681e-002
1.317143e+003,8.077390e-002
1.319071e+003,8.024204e-002
1.321000e+003,7.959327e-002
1.322928e+003,7.907707e-002
1.324857e+003,7.894111e-002
1.326785e+003,7.896646e-002
1.328714e+003,7.881550e-002
1.330642e+003,7.853032e-002
1.332571e+003,7.846668e-002
1.334499e+003,7.846263e-002
1.336427e+003,7.834332e-002
1.338356e+003,7.855847e-002
1.340284e+003,7.918672e-002
1.342213e+003,7.987995e-002
1.344141e+003,8.077507e-002
1.346070e+003,8.173545e-002
1.347998e+003,8.344842e-002
1.349927e+003,8.513634e-002
1.351855e+003,8.660768e-002
1.353784e+003,8.800781e-002
1.355712e+003,8.947174e-002
1.357641e+003,9.074421e-002
1.359569e+003,9.132824e-002
1.361498e+003,9.125870e-002
1.363426e+003,9.102631e-002
1.365354e+003,9.092522e-002
1.367283e+003,9.053565e-002
1.369211e+003,8.969495e-002
1.371140e+003,8.894482e-002
1.373068e+003,8.842929e-002
1.374997e+003,8.789843e-002
1.376925e+003,8.707453e-002
1.378854e+003,8.598525e-002
1.380782e+003,8.475357e-002
1.382711e+003,8.308395e-002
1.384639e+003,8.128765e-002
1.386568e+003,7.949446e-002
1.388496e+003,7.792965e-002
1.390425e+003,7.668532e-002
1.392353e+003,7.567488e-002
1.394281e+003,7.470001e-002
1.396210e+003,7.379305e-002
1.398138e+003,7.354458e-002
1.400067e+003,7.378893e-002
1.401995e+003,7.421879e-002
1.403924e+003,7.472201e-002
1.405852e+003,7.528479e-002
1.407781e+003,7.597643e-002
1.409709e+003,7.684989e-002
1.411638e+003,7.801197e-002
1.413566e+003,7.952248e-002
1.415495e+003,8.102735e-002
1.417423e+003,8.257917e-002
1.419352e+003,8.456062e-002
1.421280e+003,8.731883e-002
1.423208e+003,9.045382e-002
1.425137e+003,9.349567e-002
1.427065e+003,9.589275e-002
1.428994e+003,9.715188e-002
1.430922e+003,9.692413e-002
1.432851e+003,9.565736e-002
1.434779e+003,9.422042e-002
1.436708e+003,9.299257e-002
1.438636e+003,9.253979e-002
1.440565e+003,9.283466e-002
1.442493e+003,9.420622e-002
1.444422e+003,9.668311e-002
1.446350e+003,9.950265e-002
1.448279e+003,1.017140e-001
1.450207e+003,1.030037e-001
1.452135e+003,1.033700e-001
1.454064e+003,1.026883e-001
1.455992e+003,1.012471e-001
1.457921e+003,1.002988e-001
1.459849e+003,1.002297e-001
1.461778e+003,1.004198e-001
1.463706e+003,9.917220e-002
1.465635e+003,9.502815e-002
1.467563e+003,8.900244e-002
1.469492e+003,8.244615e-002
1.471420e+003,7.649983e-002
1.473349e+003,7.131903e-002
1.475277e+003,6.644393e-002
1.477206e+003,6.258685e-002
1.479134e+003,6.054733e-002
1.481063e+003,5.928678e-002
1.482991e+003,5.852613e-002
1.484919e+003,5.819182e-002
1.486848e+003,5.817424e-002
1.488776e+003,5.877268e-002
1.490705e+003,5.967759e-002
1.492633e+003,6.107227e-002
1.494562e+003,6.325407e-002
1.496490e+003,6.623948e-002
1.498419e+003,7.009342e-002
1.500347e+003,7.493729e-002
1.502276e+003,8.014909e-002
1.504204e+003,8.520177e-002
1.506133e+003,9.119779e-002
1.508061e+003,9.960537e-002
1.509990e+003,1.095664e-001
1.511918e+003,1.180142e-001
1.513846e+003,1.206000e-001
1.515775e+003,1.144017e-001
1.517703e+003,1.005730e-001
1.519632e+003,8.386108e-002
1.521560e+003,6.863490e-002
1.523489e+003,5.657804e-002
1.525417e+003,4.745262e-002
1.527346e+003,4.040042e-002
1.529274e+003,3.477976e-002
1.531203e+003,3.114760e-002
1.533131e+003,2.896540e-002
1.535060e+003,2.780414e-002
1.536988e+003,2.731217e-002
1.538917e+003,2.757675e-002
1.540845e+003,2.779026e-002
1.542773e+003,2.779884e-002
1.544702e+003,2.758533e-002
1.546630e+003,2.730109e-002
1.548559e+003,2.704716e-002
1.550487e+003,2.739252e-002
1.552416e+003,2.820353e-002
1.554344e+003,2.926033e-002
1.556273e+003,3.017755e-002
1.558201e+003,3.121916e-002
1.560130e+003,3.229287e-002
1.562058e+003,3.362438e-002
1.563987e+003,3.524203e-002
1.565915e+003,3.667464e-002
1.567844e+003,3.813720e-002
1.569772e+003,3.997179e-002
1.571700e+003,4.226222e-002
1.573629e+003,4.460441e-002
1.575557e+003,4.737253e-002
1.577486e+003,5.018787e-002
1.579414e+003,5.267913e-002
1.581343e+003,5.491535e-002
1.583271e+003,5.722596e-002
1.585200e+003,5.966322e-002
1.587128e+003,6.198428e-002
1.589057e+003,6.403238e-002
1.590985e+003,6.582141e-002
1.592914e+003,6.770658e-002
1.594842e+003,6.943778e-002
1.596771e+003,7.134371e-002
1.598699e+003,7.276792e-002
1.600627e+003,7.316948e-002
1.602556e+003,7.257325e-002
1.604484e+003,7.168236e-002
1.606413e+003,7.070681e-002
1.608341e+003,6.944268e-002
1.610270e+003,6.824607e-002
1.612198e+003,6.629317e-002
1.614127e+003,6.351831e-002
1.616055e+003,6.058770e-002
1.617984e+003,5.759229e-002
1.619912e+003,5.480203e-002
1.621841e+003,5.248630e-002
1.623769e+003,5.096657e-002
1.625698e+003,4.980826e-002
1.627626e+003,4.861467e-002
1.629554e+003,4.788189e-002
1.631483e+003,4.735487e-002
1.633411e+003,4.694642e-002
1.635340e+003,4.709345e-002
1.637268e+003,4.730019e-002
1.639197e+003,4.728995e-002
1.641125e+003,4.760373e-002
1.643054e+003,4.815842e-002
1.644982e+003,4.859788e-002
1.646911e+003,4.905937e-002
1.648839e+003,4.954925e-002
1.650768e+003,5.022752e-002
1.652696e+003,5.058260e-002
1.654625e+003,5.108336e-002
1.656553e+003,5.172633e-002
1.658481e+003,5.211928e-002
1.660410e+003,5.244992e-002
1.662338e+003,5.280689e-002
1.664267e+003,5.324498e-002
1.666195e+003,5.399812e-002
1.668124e+003,5.466624e-002
1.670052e+003,5.496915e-002
1.671981e+003,5.568841e-002
1.673909e+003,5.660934e-002
1.675838e+003,5.741315e-002
1.677766e+003,5.821664e-002
1.679695e+003,5.900806e-002
1.681623e+003,6.011102e-002
1.683552e+003,6.150091e-002
1.685480e+003,6.318757e-002
1.687408e+003,6.496511e-002
1.689337e+003,6.675366e-002
1.691265e+003,6.851272e-002
1.693194e+003,7.012574e-002
1.695122e+003,7.150842e-002
1.697051e+003,7.277767e-002
1.698979e+003,7.366356e-002
1.700908e+003,7.413983e-002
1.702836e+003,7.439407e-002
1.704765e+003,7.452646e-002
1.706693e+003,7.411417e-002
1.708622e+003,7.335556e-002
1.710550e+003,7.244600e-002
1.712479e+003,7.096634e-002
1.714407e+003,6.924172e-002
1.716335e+003,6.708191e-002
1.718264e+003,6.479775e-002
1.720192e+003,6.290136e-002
1.722121e+003,6.079438e-002
1.724049e+003,5.824687e-002
1.725978e+003,5.609896e-002
1.727906e+003,5.425863e-002
1.729835e+003,5.242966e-002
1.731763e+003,5.069045e-002
1.733692e+003,4.897369e-002
1.735620e+003,4.730318e-002
1.737549e+003,4.601203e-002
1.739477e+003,4.457959e-002
1.741406e+003,4.287236e-002
1.743334e+003,4.096927e-002
1.745262e+003,3.901628e-002
1.747191e+003,3.724249e-002
1.749119e+003,3.564933e-002
1.751048e+003,3.436388e-002
1.752976e+003,3.318236e-002
1.754905e+003,3.201499e-002
1.756833e+003,3.062019e-002
1.758762e+003,2.920295e-002
1.760690e+003,2.787639e-002
1.762619e+003,2.647335e-002
1.764547e+003,2.494384e-002
1.766476e+003,2.363590e-002
1.768404e+003,2.260573e-002
1.770333e+003,2.158072e-002
1.772261e+003,2.043470e-002
1.774189e+003,1.943451e-002
1.776118e+003,1.849152e-002
1.778046e+003,1.726576e-002
1.779975e+003,1.610620e-002
1.781903e+003,1.530791e-002
1.783832e+003,1.464667e-002
1.785760e+003,1.397682e-002
1.787689e+003,1.320531e-002
1.789617e+003,1.265843e-002
1.791546e+003,1.222843e-002
1.793474e+003,1.152034e-002
1.795403e+003,1.098349e-002
1.797331e+003,1.062526e-002
1.799260e+003,9.967136e-003
1.801188e+003,9.333269e-003
1.803116e+003,8.875705e-003
1.805045e+003,8.362716e-003
1.806973e+003,7.812547e-003
1.808902e+003,7.337406e-003
1.810830e+003,7.158133e-003
1.812759e+003,6.924963e-003
1.814687e+003,6.603431e-003
1.816616e+003,6.484020e-003
1.818544e+003,6.383101e-003
1.820473e+003,6.263144e-003
1.822401e+003,6.196927e-003
1.824330e+003,6.206742e-003
1.826258e+003,6.280793e-003
1.828187e+003,6.226673e-003
1.830115e+003,6.130787e-003
1.832043e+003,6.014664e-003
1.833972e+003,5.961955e-003
1.835900e+003,6.078367e-003
1.837829e+003,6.033108e-003
1.839757e+003,5.967094e-003
1.841686e+003,6.337104e-003
1.843614e+003,6.251312e-003
1.845543e+003,6.068589e-003
1.847471e+003,6.108944e-003
1.849400e+003,6.283986e-003
1.851328e+003,6.361884e-003
1.853257e+003,6.360875e-003
1.855185e+003,6.305502e-003
1.857114e+003,6.319017e-003
1.859042e+003,6.255144e-003
1.860970e+003,6.172291e-003
1.862899e+003,6.306577e-003
1.864827e+003,6.419921e-003
1.866756e+003,6.287079e-003
1.868684e+003,6.118925e-003
1.870613e+003,6.088884e-003
1.872541e+003,6.293231e-003
1.874470e+003,6.331355e-003
1.876398e+003,6.287113e-003
1.878327e+003,6.202036e-003
1.880255e+003,6.028506e-003
1.882183e+003,6.114758e-003
1.884112e+003,6.368474e-003
1.886040e+003,6.524952e-003
1.887969e+003,6.388077e-003
1.889897e+003,6.178644e-003
1.891826e+003,6.204557e-003
1.893754e+003,6.374325e-003
1.895683e+003,6.309301e-003
1.897611e+003,6.099166e-003
1.899540e+003,6.176325e-003
1.901468e+003,6.406302e-003
1.903397e+003,6.460377e-003
1.905325e+003,6.527778e-003
1.907254e+003,6.540997e-003
1.909182e+003,6.458964e-003
1.911110e+003,6.415146e-003
1.913039e+003,6.467977e-003
1.914967e+003,6.322446e-003
1.916896e+003,6.237597e-003
1.918824e+003,6.178005e-003
1.920753e+003,6.151220e-003
1.922681e+003,6.098359e-003
1.924610e+003,6.119765e-003
1.926538e+003,6.444032e-003
1.928467e+003,6.589504e-003
1.930395e+003,6.314411e-003
1.932324e+003,6.115800e-003
1.934252e+003,6.066842e-003
1.936181e+003,6.325606e-003
1.938109e+003,6.535716e-003
1.940037e+003,6.484524e-003
1.941966e+003,6.517317e-003
1.943894e+003,6.511128e-003
1.945823e+003,6.493403e-003
1.947751e+003,6.462092e-003
1.949680e+003,6.576519e-003
1.951608e+003,6.518393e-003
1.953537e+003,6.574265e-003
1.955465e+003,6.505310e-003
1.957394e+003,6.365818e-003
1.959322e+003,6.558421e-003
1.961251e+003,6.561045e-003
1.963179e+003,6.489435e-003
1.965108e+003,6.676642e-003
1.967036e+003,6.650330e-003
1.968964e+003,6.475342e-003
1.970893e+003,6.557042e-003
1.972821e+003,6.516712e-003
1.974750e+003,6.630985e-003
1.976678e+003,6.402401e-003
1.978607e+003,6.464009e-003
1.980535e+003,6.690202e-003
1.982464e+003,6.746533e-003
1.984392e+003,6.743672e-003
1.986321e+003,6.694307e-003
1.988249e+003,6.735024e-003
1.990178e+003,6.780120e-003
1.992106e+003,6.838650e-003
1.994035e+003,7.006612e-003
1.995963e+003,6.939069e-003
1.997891e+003,6.949237e-003
1.999820e+003,7.097303e-003
2.001748e+003,6.871874e-003
2.003677e+003,6.662207e-003
2.005605e+003,6.771167e-003
2.007534e+003,6.988934e-003
2.009462e+003,7.077432e-003
2.011391e+003,7.053622e-003
2.013319e+003,7.121856e-003
2.015248e+003,7.073727e-003
2.017176e+003,7.094642e-003
2.019105e+003,7.275708e-003
2.021033e+003,7.156348e-003
2.022962e+003,7.070393e-003
2.024890e+003,7.080059e-003
2.026818e+003,6.961459e-003
2.028747e+003,6.859756e-003
2.030675e+003,6.854639e-003
2.032604e+003,7.003986e-003
2.034532e+003,7.223992e-003
2.036461e+003,7.213380e-003
2.038389e+003,7.145468e-003
2.040318e+003,7.073761e-003
2.042246e+003,7.146748e-003
2.044175e+003,7.202195e-003
2.046103e+003,7.210988e-003
2.048032e+003,7.295083e-003
2.049960e+003,7.369118e-003
2.051889e+003,7.324298e-003
2.053817e+003,7.292691e-003
2.055746e+003,7.257177e-003
2.057674e+003,7.506640e-003
2.059603e+003,7.699952e-003
2.061531e+003,7.538162e-003
2.063459e+003,7.372151e-003
2.065388e+003,7.413976e-003
2.067316e+003,7.585465e-003
2.069245e+003,7.416335e-003
2.071173e+003,7.267218e-003
2.073102e+003,7.291309e-003
2.075030e+003,7.358368e-003
2.076959e+003,7.520563e-003
2.078887e+003,7.537656e-003
2.080816e+003,7.286693e-003
2.082744e+003,7.252090e-003
2.084673e+003,7.257784e-003
2.086601e+003,7.045270e-003
2.088530e+003,6.954523e-003
2.090458e+003,7.000619e-003
2.092386e+003,7.200511e-003
2.094315e+003,7.426784e-003
2.096243e+003,7.284671e-003
2.098172e+003,6.998497e-003
2.100100e+003,6.957621e-003
2.102029e+003,6.918835e-003
2.103957e+003,6.896650e-003
2.105886e+003,6.970314e-003
2.107814e+003,7.223048e-003
2.109743e+003,7.162849e-003
2.111671e+003,6.783721e-003
2.113600e+003,6.823436e-003
2.115528e+003,7.146546e-003
2.117457e+003,7.250203e-003
2.119385e+003,6.995130e-003
2.121313e+003,6.812531e-003
2.123242e+003,6.938194e-003
2.125170e+003,7.055070e-003
2.127099e+003,6.894529e-003
2.129027e+003,6.867633e-003
2.130956e+003,6.875678e-003
2.132884e+003,6.740476e-003
2.134813e+003,6.811589e-003
2.136741e+003,6.944793e-003
2.138670e+003,6.893553e-003
2.140598e+003,6.836833e-003
2.142527e+003,7.012539e-003
2.144455e+003,7.101344e-003
2.146384e+003,6.917388e-003
2.148312e+003,6.868306e-003
2.150240e+003,6.973749e-003
2.152169e+003,7.068305e-003
2.154097e+003,7.104140e-003
2.156026e+003,7.097235e-003
2.157954e+003,7.174369e-003
2.159883e+003,7.200073e-003
2.161811e+003,7.053521e-003
2.163740e+003,6.940248e-003
2.165668e+003,7.099424e-003
2.167597e+003,6.926848e-003
2.169525e+003,6.900185e-003
2.171454e+003,7.076388e-003
2.173382e+003,7.176593e-003
2.175311e+003,7.136542e-003
2.177239e+003,7.097134e-003
2.179167e+003,6.885171e-003
2.181096e+003,6.986341e-003
2.183024e+003,7.135060e-003
2.184953e+003,7.033551e-003
2.186881e+003,7.102119e-003
2.188810e+003,7.067329e-003
2.190738e+003,6.969910e-003
2.192667e+003,6.808627e-003
2.194595e+003,6.701979e-003
2.196524e+003,6.812093e-003
2.198452e+003,6.994726e-003
2.200381e+003,6.948631e-003
2.202309e+003,6.885339e-003
2.204238e+003,7.032440e-003
2.206166e+003,7.359480e-003
2.208094e+003,7.456682e-003
2.210023e+003,7.249058e-003
2.211951e+003,7.036515e-003
2.213880e+003,6.993143e-003
2.215808e+003,6.860967e-003
2.217737e+003,6.801727e-003
2.219665e+003,6.997285e-003
2.221594e+003,7.042509e-003
2.223522e+003,7.051736e-003
2.225451e+003,7.082720e-003
2.227379e+003,7.007824e-003
2.229308e+003,6.971223e-003
2.231236e+003,7.016041e-003
2.233165e+003,7.166116e-003
2.235093e+003,7.264253e-003
2.237021e+003,7.188383e-003
2.238950e+003,7.126404e-003
2.240878e+003,7.189090e-003
2.242807e+003,7.059482e-003
2.244735e+003,6.966375e-003
2.246664e+003,7.140651e-003
2.248592e+003,7.251180e-003
2.250521e+003,7.094373e-003
2.252449e+003,6.933817e-003
2.254378e+003,7.035201e-003
2.256306e+003,7.184273e-003
2.258235e+003,7.266544e-003
2.260163e+003,7.252865e-003
2.262092e+003,7.077499e-003
2.264020e+003,7.030318e-003
2.265948e+003,7.085784e-003
2.267877e+003,7.044125e-003
2.269805e+003,7.122833e-003
2.271734e+003,7.025974e-003
2.273662e+003,7.068945e-003
2.275591e+003,7.252528e-003
2.277519e+003,7.170563e-003
2.279448e+003,7.017590e-003
2.281376e+003,7.164028e-003
2.283305e+003,7.354323e-003
2.285233e+003,7.417987e-003
2.287162e+003,7.386070e-003
2.289090e+003,7.304956e-003
2.291019e+003,7.389710e-003
2.292947e+003,7.298958e-003
2.294875e+003,7.433188e-003
2.296804e+003,7.569787e-003
2.298732e+003,7.657729e-003
2.300661e+003,7.534386e-003
2.302589e+003,7.501516e-003
2.304518e+003,7.467671e-003
2.306446e+003,7.546253e-003
2.308375e+003,7.687474e-003
2.310303e+003,7.556570e-003
2.312232e+003,7.577811e-003
2.314160e+003,7.608293e-003
2.316089e+003,7.574642e-003
2.318017e+003,7.713915e-003
2.319946e+003,7.800065e-003
2.321874e+003,7.671319e-003
2.323802e+003,7.519822e-003
2.325731e+003,7.619892e-003
2.327659e+003,7.718131e-003
2.329588e+003,7.642047e-003
2.331516e+003,7.791530e-003
2.333445e+003,8.214522e-003
2.335373e+003,7.845947e-003
2.337302e+003,7.734490e-003
2.339230e+003,7.939951e-003
2.341159e+003,7.813154e-003
2.343087e+003,7.693915e-003
2.345016e+003,7.756516e-003
2.346944e+003,7.707338e-003
2.348873e+003,7.599897e-003
2.350801e+003,7.678334e-003
2.352729e+003,7.761306e-003
2.354658e+003,7.775237e-003
2.356586e+003,7.783232e-003
2.358515e+003,7.907590e-003
2.360443e+003,8.068944e-003
2.362372e+003,8.008830e-003
2.364300e+003,7.909378e-003
2.366229e+003,7.983923e-003
2.368157e+003,8.304081e-003
2.370086e+003,8.413960e-003
2.372014e+003,8.078328e-003
2.373943e+003,7.862040e-003
2.375871e+003,8.039511e-003
2.377800e+003,8.047713e-003
2.379728e+003,7.924125e-003
2.381656e+003,7.864300e-003
2.383585e+003,7.883971e-003
2.385513e+003,7.939107e-003
2.387442e+003,8.191089e-003
2.389370e+003,8.268181e-003
2.391299e+003,8.146825e-003
2.393227e+003,8.209323e-003
2.395156e+003,8.368526e-003
2.397084e+003,8.385415e-003
2.399013e+003,8.327453e-003
2.400941e+003,8.367782e-003
2.402870e+003,8.520252e-003
2.404798e+003,8.544548e-003
2.406727e+003,8.523462e-003
2.408655e+003,8.415041e-003
2.410583e+003,8.167252e-003
2.412512e+003,8.122484e-003
2.414440e+003,8.535222e-003
2.416369e+003,8.595375e-003
2.418297e+003,8.442947e-003
2.420226e+003,8.658309e-003
2.422154e+003,8.584155e-003
2.424083e+003,8.565095e-003
2.426011e+003,8.698636e-003
2.427940e+003,8.683120e-003
2.429868e+003,8.586352e-003
2.431797e+003,8.361534e-003
2.433725e+003,8.302663e-003
2.435654e+003,8.570333e-003
2.437582e+003,8.717364e-003
2.439510e+003,8.663480e-003
2.441439e+003,8.598045e-003
2.443367e+003,8.510454e-003
2.445296e+003,8.588109e-003
2.447224e+003,8.435447e-003
2.449153e+003,8.460954e-003
2.451081e+003,8.805606e-003
2.453010e+003,8.726998e-003
2.454938e+003,8.582735e-003
2.456867e+003,8.828328e-003
2.458795e+003,9.133950e-003
2.460724e+003,9.173677e-003
2.462652e+003,9.235409e-003
2.464581e+003,9.311637e-003
2.466509e+003,9.184575e-003
2.468438e+003,9.054234e-003
2.470366e+003,9.334488e-003
2.472294e+003,9.480728e-003
2.474223e+003,9.235714e-003
2.476151e+003,9.189414e-003
2.478080e+003,9.226033e-003
2.480008e+003,9.145353e-003
2.481937e+003,9.093109e-003
2.483865e+003,9.158855e-003
2.485794e+003,9.382225e-003
2.487722e+003,9.411716e-003
2.489651e+003,9.620681e-003
2.491579e+003,9.497728e-003
2.493508e+003,9.259813e-003
2.495436e+003,9.422246e-003
2.497365e+003,9.420519e-003
2.499293e+003,9.470500e-003
2.501221e+003,9.499252e-003
2.503150e+003,9.483945e-003
2.505078e+003,9.719272e-003
2.507007e+003,9.892149e-003
2.508935e+003,9.812023e-003
2.510864e+003,9.671567e-003
2.512792e+003,9.603676e-003
2.514721e+003,9.836222e-003
2.516649e+003,9.894522e-003
2.518578e+003,9.722763e-003
2.520506e+003,9.835883e-003
2.522435e+003,9.965373e-003
2.524363e+003,9.853711e-003
2.526292e+003,9.634639e-003
2.528220e+003,9.426039e-003
2.530148e+003,9.616312e-003
2.532077e+003,9.768001e-003
2.534005e+003,9.842797e-003
2.535934e+003,9.936455e-003
2.537862e+003,1.002091e-002
2.539791e+003,9.920081e-003
2.541719e+003,9.874624e-003
2.543648e+003,1.005736e-002
2.545576e+003,1.020483e-002
2.547505e+003,1.051203e-002
2.549433e+003,1.034807e-002
2.551362e+003,9.941031e-003
2.553290e+003,1.000023e-002
2.555219e+003,1.026874e-002
2.557147e+003,1.023994e-002
2.559075e+003,1.030793e-002
2.561004e+003,1.040362e-002
2.562932e+003,1.028391e-002
2.564861e+003,1.034800e-002
2.566789e+003,1.032045e-002
2.568718e+003,1.036052e-002
2.570646e+003,1.047564e-002
2.572575e+003,1.051600e-002
2.574503e+003,1.033443e-002
2.576432e+003,1.026301e-002
2.578360e+003,1.026474e-002
2.580289e+003,1.038238e-002
2.582217e+003,1.060994e-002
2.584146e+003,1.067460e-002
2.586074e+003,1.028645e-002
2.588002e+003,1.011278e-002
2.589931e+003,1.030705e-002
2.591859e+003,1.047972e-002
2.593788e+003,1.075077e-002
2.595716e+003,1.089151e-002
2.597645e+003,1.082506e-002
2.599573e+003,1.047446e-002
2.601502e+003,1.058176e-002
2.603430e+003,1.085849e-002
2.605359e+003,1.080101e-002
2.607287e+003,1.068651e-002
2.609216e+003,1.069966e-002
2.611144e+003,1.081262e-002
2.613073e+003,1.085478e-002
2.615001e+003,1.084164e-002
2.616929e+003,1.090768e-002
2.618858e+003,1.073522e-002
2.620786e+003,1.054014e-002
2.622715e+003,1.054910e-002
2.624643e+003,1.051502e-002
2.626572e+003,1.054842e-002
2.628500e+003,1.054065e-002
2.630429e+003,1.072194e-002
2.632357e+003,1.096076e-002
2.634286e+003,1.111234e-002
2.636214e+003,1.120868e-002
2.638143e+003,1.122266e-002
2.640071e+003,1.117652e-002
2.642000e+003,1.103423e-002
2.643928e+003,1.094332e-002
2.645856e+003,1.091020e-002
2.647785e+003,1.095512e-002
2.649713e+003,1.105629e-002
2.651642e+003,1.123558e-002
2.653570e+003,1.127101e-002
2.655499e+003,1.125714e-002
2.657427e+003,1.144597e-002
2.659356e+003,1.157683e-002
2.661284e+003,1.148448e-002
2.663213e+003,1.127145e-002
2.665141e+003,1.129818e-002
2.667070e+003,1.136841e-002
2.668998e+003,1.140916e-002
2.670927e+003,1.134892e-002
2.672855e+003,1.119196e-002
2.674783e+003,1.105160e-002
2.676712e+003,1.118104e-002
2.678640e+003,1.120777e-002
2.680569e+003,1.120039e-002
2.682497e+003,1.133022e-002
2.684426e+003,1.132087e-002
2.686354e+003,1.119104e-002
2.688283e+003,1.110639e-002
2.690211e+003,1.141297e-002
2.692140e+003,1.154021e-002
2.694068e+003,1.152456e-002
2.695997e+003,1.152136e-002
2.697925e+003,1.144556e-002
2.699854e+003,1.158632e-002
2.701782e+003,1.160170e-002
2.703710e+003,1.150938e-002
2.705639e+003,1.149220e-002
2.707567e+003,1.150796e-002
2.709496e+003,1.171497e-002
2.711424e+003,1.166480e-002
2.713353e+003,1.172552e-002
2.715281e+003,1.186283e-002
2.717210e+003,1.186212e-002
2.719138e+003,1.193969e-002
2.721067e+003,1.209554e-002
2.722995e+003,1.218208e-002
2.724924e+003,1.247971e-002
2.726852e+003,1.249812e-002
2.728781e+003,1.232301e-002
2.730709e+003,1.210392e-002
2.732637e+003,1.211220e-002
2.734566e+003,1.212392e-002
2.736494e+003,1.207073e-002
2.738423e+003,1.213802e-002
2.740351e+003,1.234984e-002
2.742280e+003,1.248850e-002
2.744208e+003,1.252182e-002
2.746137e+003,1.242014e-002
2.748065e+003,1.227355e-002
2.749994e+003,1.208773e-002
2.751922e+003,1.219268e-002
2.753851e+003,1.225317e-002
2.755779e+003,1.243586e-002
2.757708e+003,1.241489e-002
2.759636e+003,1.259334e-002
2.761564e+003,1.267572e-002
2.763493e+003,1.261483e-002
2.765421e+003,1.245993e-002
2.767350e+003,1.250194e-002
2.769278e+003,1.263499e-002
2.771207e+003,1.250317e-002
2.773135e+003,1.240459e-002
2.775064e+003,1.242743e-002
2.776992e+003,1.256902e-002
2.778921e+003,1.298785e-002
2.780849e+003,1.313687e-002
2.782778e+003,1.339892e-002
2.784706e+003,1.338495e-002
2.786635e+003,1.326646e-002
2.788563e+003,1.339605e-002
2.790491e+003,1.334825e-002
2.792420e+003,1.333721e-002
2.794348e+003,1.358763e-002
2.796277e+003,1.374314e-002
2.798205e+003,1.406576e-002
2.800134e+003,1.447761e-002
2.802062e+003,1.475943e-002
2.803991e+003,1.479714e-002
2.805919e+003,1.518642e-002
2.807848e+003,1.497798e-002
2.809776e+003,1.496389e-002
2.811705e+003,1.547262e-002
2.813633e+003,1.558536e-002
2.815562e+003,1.585433e-002
2.817490e+003,1.667525e-002
2.819418e+003,1.713621e-002
2.821347e+003,1.745012e-002
2.823275e+003,1.795320e-002
2.825204e+003,1.835379e-002
2.827132e+003,1.885101e-002
2.829061e+003,1.946643e-002
2.830989e+003,2.024928e-002
2.832918e+003,2.092482e-002
2.834846e+003,2.178287e-002
2.836775e+003,2.262727e-002
2.838703e+003,2.347156e-002
2.840632e+003,2.426620e-002
2.842560e+003,2.519209e-002
2.844489e+003,2.702011e-002
2.846417e+003,2.995316e-002
2.848345e+003,3.159466e-002
2.850274e+003,3.109229e-002
2.852202e+003,2.928465e-002
2.854131e+003,2.754984e-002
2.856059e+003,2.662653e-002
2.857988e+003,2.658715e-002
2.859916e+003,2.652568e-002
2.861845e+003,2.657158e-002
2.863773e+003,2.684790e-002
2.865702e+003,2.729957e-002
2.867630e+003,2.778765e-002
2.869558e+003,2.800808e-002
2.871487e+003,2.785653e-002
2.873415e+003,2.777560e-002
2.875344e+003,2.786748e-002
2.877272e+003,2.777913e-002
2.879201e+003,2.794458e-002
2.881129e+003,2.821230e-002
2.883058e+003,2.811720e-002
2.884986e+003,2.832991e-002
2.886915e+003,2.824182e-002
2.888843e+003,2.821064e-002
2.890771e+003,2.875319e-002
2.892700e+003,2.918779e-002
2.894628e+003,2.965166e-002
2.896557e+003,3.025523e-002
2.898485e+003,3.079028e-002
2.900414e+003,3.123440e-002
2.902342e+003,3.186984e-002
2.904271e+003,3.290294e-002
2.906199e+003,3.405733e-002
2.908128e+003,3.543907e-002
2.910056e+003,3.709101e-002
2.911985e+003,3.952837e-002
2.913913e+003,4.254703e-002
2.915842e+003,4.445048e-002
2.917770e+003,4.464179e-002
2.919698e+003,4.366640e-002
2.921627e+003,4.247804e-002
2.923555e+003,4.138894e-002
2.925484e+003,4.017182e-002
2.927412e+003,3.945445e-002
2.929341e+003,3.961530e-002
2.931269e+003,3.975740e-002
2.933198e+003,3.918215e-002
2.935126e+003,3.862287e-002
2.937055e+003,3.773385e-002
2.938983e+003,3.684034e-002
2.940912e+003,3.617922e-002
2.942840e+003,3.551828e-002
2.944769e+003,3.439286e-002
2.946697e+003,3.369385e-002
2.948625e+003,3.333002e-002
2.950554e+003,3.350651e-002
2.952482e+003,3.427675e-002
2.954411e+003,3.439264e-002
2.956339e+003,3.405396e-002
2.958268e+003,3.384347e-002
2.960196e+003,3.321523e-002
2.962125e+003,3.286292e-002
2.964053e+003,3.261014e-002
2.965982e+003,3.172699e-002
2.967910e+003,3.092688e-002
2.969839e+003,2.995246e-002
2.971767e+003,2.941380e-002
2.973696e+003,2.842828e-002
2.975624e+003,2.712834e-002
2.977552e+003,2.612343e-002
2.979481e+003,2.508634e-002
2.981409e+003,2.426301e-002
2.983338e+003,2.368940e-002
2.985266e+003,2.295624e-002
2.987195e+003,2.249827e-002
2.989123e+003,2.231236e-002
2.991052e+003,2.176444e-002
2.992980e+003,2.107303e-002
2.994909e+003,2.081513e-002
2.996837e+003,2.034511e-002
2.998766e+003,1.994341e-002
3.000694e+003,1.977859e-002
3.002623e+003,1.959847e-002
3.004551e+003,1.915632e-002
3.006479e+003,1.872642e-002
3.008408e+003,1.880547e-002
3.010336e+003,1.879035e-002
3.012265e+003,1.873306e-002
3.014193e+003,1.851911e-002
3.016122e+003,1.800400e-002
3.018050e+003,1.766219e-002
3.019979e+003,1.750827e-002
3.021907e+003,1.717416e-002
3.023836e+003,1.701562e-002
3.025764e+003,1.736948e-002
3.027693e+003,1.792468e-002
3.029621e+003,1.787997e-002
3.031550e+003,1.769850e-002
3.033478e+003,1.740769e-002
3.035406e+003,1.721156e-002
3.037335e+003,1.790220e-002
3.039263e+003,1.825205e-002
3.041192e+003,1.777260e-002
3.043120e+003,1.777212e-002
3.045049e+003,1.736386e-002
3.046977e+003,1.727186e-002
3.048906e+003,1.760909e-002
3.050834e+003,1.786498e-002
3.052763e+003,1.773418e-002
3.054691e+003,1.794053e-002
3.056620e+003,1.822129e-002
3.058548e+003,1.790755e-002
3.060477e+003,1.756882e-002
3.062405e+003,1.739848e-002
3.064333e+003,1.767465e-002
3.066262e+003,1.781468e-002
3.068190e+003,1.811215e-002
3.070119e+003,1.838967e-002
3.072047e+003,1.801357e-002
3.073976e+003,1.815841e-002
3.075904e+003,1.839278e-002
3.077833e+003,1.824728e-002
3.079761e+003,1.804517e-002
3.081690e+003,1.759825e-002
3.083618e+003,1.762096e-002
3.085547e+003,1.766792e-002
3.087475e+003,1.783049e-002
3.089404e+003,1.808179e-002
3.091332e+003,1.827230e-002
3.093260e+003,1.836347e-002
3.095189e+003,1.850037e-002
3.097117e+003,1.850943e-002
3.099046e+003,1.882869e-002
3.100974e+003,1.880239e-002
3.102903e+003,1.826317e-002
3.104831e+003,1.798781e-002
3.106760e+003,1.845172e-002
3.108688e+003,1.917423e-002
3.110617e+003,1.937021e-002
3.112545e+003,1.952680e-002
3.114474e+003,1.997574e-002
3.116402e+003,2.004035e-002
3.118331e+003,2.029088e-002
3.120259e+003,2.077752e-002
3.122188e+003,2.068570e-002
3.124116e+003,2.039428e-002
3.126044e+003,2.024706e-002
3.127973e+003,2.010045e-002
3.129901e+003,2.005763e-002
3.131830e+003,2.007564e-002
3.133758e+003,2.044346e-002
3.135687e+003,2.086936e-002
3.137615e+003,2.089321e-002
3.139544e+003,2.101224e-002
3.141472e+003,2.116406e-002
3.143401e+003,2.177604e-002
3.145329e+003,2.216079e-002
3.147258e+003,2.198296e-002
3.149186e+003,2.175100e-002
3.151115e+003,2.164103e-002
3.153043e+003,2.205808e-002
3.154971e+003,2.234595e-002
3.156900e+003,2.255921e-002
3.158828e+003,2.275979e-002
3.160757e+003,2.282827e-002
3.162685e+003,2.286616e-002
3.164614e+003,2.300473e-002
3.166542e+003,2.347513e-002
3.168471e+003,2.363664e-002
3.170399e+003,2.315355e-002
3.172328e+003,2.341711e-002
3.174256e+003,2.382578e-002
3.176185e+003,2.370707e-002
3.178113e+003,2.393420e-002
3.180042e+003,2.416138e-002
3.181970e+003,2.442919e-002
3.183898e+003,2.478062e-002
3.185827e+003,2.503618e-002
3.187755e+003,2.475126e-002
3.189684e+003,2.489355e-002
3.191612e+003,2.503674e-002
3.193541e+003,2.552090e-002
3.195469e+003,2.620318e-002
3.197398e+003,2.634806e-002
3.199326e+003,2.587852e-002
3.201255e+003,2.576769e-002
3.203183e+003,2.637813e-002
3.205112e+003,2.610172e-002
3.207040e+003,2.630899e-002
3.208969e+003,2.671676e-002
3.210897e+003,2.676218e-002
3.212825e+003,2.740018e-002
3.214754e+003,2.740957e-002
3.216682e+003,2.697357e-002
3.218611e+003,2.727156e-002
3.220539e+003,2.770616e-002
3.222468e+003,2.761474e-002
3.224396e+003,2.783986e-002
3.226325e+003,2.897249e-002
3.228253e+003,2.944390e-002
3.230182e+003,2.919806e-002
3.232110e+003,2.895563e-002
3.234039e+003,2.889067e-002
3.235967e+003,2.866083e-002
3.237896e+003,2.894061e-002
3.239824e+003,2.921320e-002
3.241752e+003,2.935377e-002
3.243681e+003,2.864827e-002
3.245609e+003,2.849037e-002
3.247538e+003,2.962108e-002
3.249466e+003,3.019030e-002
3.251395e+003,2.963878e-002
3.253323e+003,3.008070e-002
3.255252e+003,3.127464e-002
3.257180e+003,3.137638e-002
3.259109e+003,3.082702e-002
3.261037e+003,3.112496e-002
3.262966e+003,3.126046e-002
3.264894e+003,3.106702e-002
3.266823e+003,3.067747e-002
3.268751e+003,3.020788e-002
3.270679e+003,3.053526e-002
3.272608e+003,3.131416e-002
3.274536e+003,3.182385e-002
3.276465e+003,3.176121e-002
3.278393e+003,3.221057e-002
3.280322e+003,3.254825e-002
3.282250e+003,3.234705e-002
3.284179e+003,3.212258e-002
3.286107e+003,3.168867e-002
3.288036e+003,3.177172e-002
3.289964e+003,3.205223e-002
3.291893e+003,3.230375e-002
3.293821e+003,3.342516e-002
3.295750e+003,3.427581e-002
3.297678e+003,3.398054e-002
3.299606e+003,3.377216e-002
3.301535e+003,3.389187e-002
3.303463e+003,3.374308e-002
3.305392e+003,3.391612e-002
3.307320e+003,3.415493e-002
3.309249e+003,3.402361e-002
3.311177e+003,3.417428e-002
3.313106e+003,3.384494e-002
3.315034e+003,3.351320e-002
3.316963e+003,3.398373e-002
3.318891e+003,3.434502e-002
3.320820e+003,3.487141e-002
3.322748e+003,3.476530e-002
3.324677e+003,3.436169e-002
3.326605e+003,3.452468e-002
3.328533e+003,3.463763e-002
3.330462e+003,3.521756e-002
3.332390e+003,3.543005e-002
3.334319e+003,3.478770e-002
3.336247e+003,3.459056e-002
3.338176e+003,3.543422e-002
3.340104e+003,3.591954e-002
3.342033e+003,3.542893e-002
3.343961e+003,3.505593e-002
3.345890e+003,3.525899e-002
3.347818e+003,3.607127e-002
3.349747e+003,3.629448e-002
3.351675e+003,3.609283e-002
3.353604e+003,3.554716e-002
3.355532e+003,3.582266e-002
3.357460e+003,3.654872e-002
3.359389e+003,3.675396e-002
3.361317e+003,3.570462e-002
3.363246e+003,3.539903e-002
3.365174e+003,3.578056e-002
3.367103e+003,3.603869e-002
3.369031e+003,3.635528e-002
3.370960e+003,3.675739e-002
3.372888e+003,3.728188e-002
3.374817e+003,3.709663e-002
3.376745e+003,3.650010e-002
3.378674e+003,3.682641e-002
3.380602e+003,3.732330e-002
3.382531e+003,3.717499e-002
3.384459e+003,3.565088e-002
3.386387e+003,3.511768e-002
3.388316e+003,3.584656e-002
3.390244e+003,3.679691e-002
3.392173e+003,3.696396e-002
3.394101e+003,3.637034e-002
3.396030e+003,3.589050e-002
3.397958e+003,3.593822e-002
3.399887e+003,3.527668e-002
3.401815e+003,3.536002e-002
3.403744e+003,3.580989e-002
3.405672e+003,3.618653e-002
3.407601e+003,3.561775e-002
3.409529e+003,3.479541e-002
3.411458e+003,3.483455e-002
3.413386e+003,3.538245e-002
3.415314e+003,3.539298e-002
3.417243e+003,3.460699e-002
3.419171e+003,3.467442e-002
3.421100e+003,3.523086e-002
3.423028e+003,3.522971e-002
3.424957e+003,3.474117e-002
3.426885e+003,3.511488e-002
3.428814e+003,3.493648e-002
3.430742e+003,3.388280e-002
3.432671e+003,3.299792e-002
3.434599e+003,3.341718e-002
3.436528e+003,3.403282e-002
3.438456e+003,3.398695e-002
3.440385e+003,3.304547e-002
3.442313e+003,3.213789e-002
3.444241e+003,3.184852e-002
3.446170e+003,3.233534e-002
3.448098e+003,3.255000e-002
3.450027e+003,3.182534e-002
3.451955e+003,3.165709e-002
3.453884e+003,3.138261e-002
3.455812e+003,3.010414e-002
3.457741e+003,2.912606e-002
3.459669e+003,2.906863e-002
3.461598e+003,2.862388e-002
3.463526e+003,2.819239e-002
3.465455e+003,2.866165e-002
3.467383e+003,2.881132e-002
3.469312e+003,2.899076e-002
3.471240e+003,2.967621e-002
3.473168e+003,2.910576e-002
3.475097e+003,2.844406e-002
3.477025e+003,2.799048e-002
3.478954e+003,2.754914e-002
3.480882e+003,2.712030e-002
3.482811e+003,2.674509e-002
3.484739e+003,2.605862e-002
3.486668e+003,2.598207e-002
3.488596e+003,2.669837e-002
3.490525e+003,2.616446e-002
3.492453e+003,2.393301e-002
3.494382e+003,2.211163e-002
3.496310e+003,2.275173e-002
3.498239e+003,2.341064e-002
3.500167e+003,2.306605e-002
3.502095e+003,2.224710e-002
3.504024e+003,2.216700e-002
3.505952e+003,2.223977e-002
3.507881e+003,2.190956e-002
3.509809e+003,2.203563e-002
3.511738e+003,2.153197e-002
3.513666e+003,2.129050e-002
3.515595e+003,2.077763e-002
3.517523e+003,1.973191e-002
3.519452e+003,1.928152e-002
3.521380e+003,1.946338e-002
3.523309e+003,1.897453e-002
3.525237e+003,1.841930e-002
3.527166e+003,1.818843e-002
3.529094e+003,1.705291e-002
3.531022e+003,1.600360e-002
3.532951e+003,1.572671e-002
3.534879e+003,1.567353e-002
3.536808e+003,1.540272e-002
3.538736e+003,1.466226e-002
3.540665e+003,1.410077e-002
3.542593e+003,1.387986e-002
3.544522e+003,1.391547e-002
3.546450e+003,1.340876e-002
3.548379e+003,1.300984e-002
3.550307e+003,1.300004e-002
3.552236e+003,1.299605e-002
3.554164e+003,1.199606e-002
3.556093e+003,1.094968e-002
3.558021e+003,1.035689e-002
3.559949e+003,9.466572e-003
3.561878e+003,8.993307e-003
3.563806e+003,8.959549e-003
3.565735e+003,9.521571e-003
3.567663e+003,9.280867e-003
3.569592e+003,8.412913e-003
3.571520e+003,8.166407e-003
3.573449e+003,8.183221e-003
3.575377e+003,7.650916e-003
3.577306e+003,7.161704e-003
3.579234e+003,7.194851e-003
3.581163e+003,7.062816e-003
3.583091e+003,6.620421e-003
3.585020e+003,6.292727e-003
3.586948e+003,5.904684e-003
3.588876e+003,5.959435e-003
3.590805e+003,5.529068e-003
3.592733e+003,4.713053e-003
3.594662e+003,4.568343e-003
3.596590e+003,4.924965e-003
3.598519e+003,4.904858e-003
3.600447e+003,5.285032e-003
3.602376e+003,6.236051e-003
3.604304e+003,5.599211e-003
3.606233e+003,4.458896e-003
3.608161e+003,4.319056e-003
3.610090e+003,4.647507e-003
3.612018e+003,4.388736e-003
3.613947e+003,4.563655e-003
3.615875e+003,4.945206e-003
3.617803e+003,4.980933e-003
3.619732e+003,4.555786e-003
3.621660e+003,4.254072e-003
3.623589e+003,4.135170e-003
3.625517e+003,4.146577e-003
3.627446e+003,4.692789e-003
3.629374e+003,4.573600e-003
3.631303e+003,3.440847e-003
3.633231e+003,3.494320e-003
3.635160e+003,4.331472e-003
3.637088e+003,3.685854e-003
3.639017e+003,2.933434e-003
3.640945e+003,2.851079e-003
3.642874e+003,3.267648e-003
3.644802e+003,3.636635e-003
3.646730e+003,3.267248e-003
3.648659e+003,2.964525e-003
3.650587e+003,3.179756e-003
3.652516e+003,3.597644e-003
3.654444e+003,3.427054e-003
3.656373e+003,3.346376e-003
3.658301e+003,3.717167e-003
3.660230e+003,3.235968e-003
3.662158e+003,2.548546e-003
3.664087e+003,3.106866e-003
3.666015e+003,3.370250e-003
3.667944e+003,3.100659e-003
3.669872e+003,3.296226e-003
3.671801e+003,3.399002e-003
3.673729e+003,3.660826e-003
3.675657e+003,3.413996e-003
3.677586e+003,3.280368e-003
3.679514e+003,3.293255e-003
3.681443e+003,3.188168e-003
3.683371e+003,3.271321e-003
3.685300e+003,3.202420e-003
3.687228e+003,3.333754e-003
3.689157e+003,3.312720e-003
3.691085e+003,3.302069e-003
3.693014e+003,3.073429e-003
3.694942e+003,3.258201e-003
3.696871e+003,3.363505e-003
3.698799e+003,2.859317e-003
3.700728e+003,2.891904e-003
3.702656e+003,3.094652e-003
3.704584e+003,2.800487e-003
3.706513e+003,2.934034e-003
3.708441e+003,3.080103e-003
3.710370e+003,3.511422e-003
3.712298e+003,3.516266e-003
3.714227e+003,3.061182e-003
3.716155e+003,3.208796e-003
3.718084e+003,3.501635e-003
3.720012e+003,3.330916e-003
3.721941e+003,3.039360e-003
3.723869e+003,2.426978e-003
3.725798e+003,2.711722e-003
3.727726e+003,3.206626e-003
3.729655e+003,2.722292e-003
3.731583e+003,2.218714e-003
3.733511e+003,2.546579e-003
3.735440e+003,2.730327e-003
3.737368e+003,2.679882e-003
3.739297e+003,3.305909e-003
3.741225e+003,3.384309e-003
3.743154e+003,2.963657e-003
3.745082e+003,2.898542e-003
3.747011e+003,2.771741e-003
3.748939e+003,2.688850e-003
3.750868e+003,2.962256e-003
3.752796e+003,3.524049e-003
3.754725e+003,3.364540e-003
3.756653e+003,3.464193e-003
3.758582e+003,4.031351e-003
3.760510e+003,3.777759e-003
3.762438e+003,3.066254e-003
3.764367e+003,2.935468e-003
3.766295e+003,3.336425e-003
3.768224e+003,3.336659e-003
3.770152e+003,3.025880e-003
3.772081e+003,3.604292e-003
3.774009e+003,3.947952e-003
3.775938e+003,3.627847e-003
3.777866e+003,3.451668e-003
3.779795e+003,3.745039e-003
3.781723e+003,3.167207e-003
3.783652e+003,2.772741e-003
3.785580e+003,2.886000e-003
3.787509e+003,3.139004e-003
3.789437e+003,3.778495e-003
3.791365e+003,3.886299e-003
3.793294e+003,3.343103e-003
3.795222e+003,3.573189e-003
3.797151e+003,4.454310e-003
3.799079e+003,4.470814e-003
3.801008e+003,4.452067e-003
3.802936e+003,4.221215e-003
3.804865e+003,3.718303e-003
3.806793e+003,3.118380e-003
3.808722e+003,2.956652e-003
3.810650e+003,3.294357e-003
3.812579e+003,3.607800e-003
3.814507e+003,3.557220e-003
3.816436e+003,3.658487e-003
3.818364e+003,3.650735e-003
3.820292e+003,3.368080e-003
3.822221e+003,3.162568e-003
3.824149e+003,3.549770e-003
3.826078e+003,3.951028e-003
3.828006e+003,3.624406e-003
3.829935e+003,2.700553e-003
3.831863e+003,3.086777e-003
3.833792e+003,4.028842e-003
3.835720e+003,3.874264e-003
3.837649e+003,3.415733e-003
3.839577e+003,3.270820e-003
3.841506e+003,3.490412e-003
3.843434e+003,3.307211e-003
3.845363e+003,3.072428e-003
3.847291e+003,2.830168e-003
3.849219e+003,2.637010e-003
3.851148e+003,2.709121e-003
3.853076e+003,2.925127e-003
3.855005e+003,3.228524e-003
3.856933e+003,2.847010e-003
3.858862e+003,2.691518e-003
3.860790e+003,2.686183e-003
3.862719e+003,3.019807e-003
3.864647e+003,3.913981e-003
3.866576e+003,4.109748e-003
3.868504e+003,3.345541e-003
3.870433e+003,3.495422e-003
3.872361e+003,4.108912e-003
3.874290e+003,4.059310e-003
3.876218e+003,3.639575e-003
3.878146e+003,2.952148e-003
3.880075e+003,2.858583e-003
3.882003e+003,3.345374e-003
3.883932e+003,3.716064e-003
3.885860e+003,3.798048e-003
3.887789e+003,3.665170e-003
3.889717e+003,3.160965e-003
3.891646e+003,3.086176e-003
3.893574e+003,3.584247e-003
3.895503e+003,3.961126e-003
3.897431e+003,3.928993e-003
3.899360e+003,3.524483e-003
3.901288e+003,3.051439e-003
3.903217e+003,3.257834e-003
3.905145e+003,3.679004e-003
3.907073e+003,3.455476e-003
3.909002e+003,3.184897e-003
3.910930e+003,3.222348e-003
3.912859e+003,3.008630e-003
3.914787e+003,3.360133e-003
3.916716e+003,4.068273e-003
3.918644e+003,4.043558e-003
3.920573e+003,3.635465e-003
3.922501e+003,3.481761e-003
3.924430e+003,3.774818e-003
3.926358e+003,4.453373e-003
3.928287e+003,4.227706e-003
3.930215e+003,3.940061e-003
3.932144e+003,3.257800e-003
3.934072e+003,2.477927e-003
3.936000e+003,3.164370e-003
3.937929e+003,3.364173e-003
3.939857e+003,3.205625e-003
3.941786e+003,3.618793e-003
3.943714e+003,4.032789e-003
3.945643e+003,3.946681e-003
3.947571e+003,3.810348e-003
3.949500e+003,3.543123e-003
3.951428e+003,3.307077e-003
3.953357e+003,2.749166e-003
3.955285e+003,2.895373e-003
3.957214e+003,3.735380e-003
3.959142e+003,3.745975e-003
3.961071e+003,3.119347e-003
3.962999e+003,3.151186e-003
3.964927e+003,3.286945e-003
3.966856e+003,3.274258e-003
3.968784e+003,3.203255e-003
3.970713e+003,3.096955e-003
3.972641e+003,3.584146e-003
3.974570e+003,3.169810e-003
3.976498e+003,3.354857e-003
3.978427e+003,4.335990e-003
3.980355e+003,4.497931e-003
3.982284e+003,4.184145e-003
3.984212e+003,4.167050e-003
3.986141e+003,4.226468e-003
3.988069e+003,4.219609e-003
3.989998e+003,4.336759e-003
3.991926e+003,4.266486e-003
3.993854e+003,3.727493e-003
3.995783e+003,3.157594e-003
3.997711e+003,3.038059e-003
3.999640e+003,3.641947e-003
4.001568e+003,0.000000e+000
