3.991927e+002,0.000000e+000
4.011211e+002,0.000000e+000
4.030496e+002,0.000000e+000
4.049781e+002,0.000000e+000
4.069065e+002,0.000000e+000
4.088350e+002,0.000000e+000
4.107635e+002,0.000000e+000
4.126919e+002,0.000000e+000
4.146204e+002,0.000000e+000
4.165489e+002,0.000000e+000
4.184773e+002,0.000000e+000
4.204058e+002,0.000000e+000
4.223343e+002,0.000000e+000
4.242627e+002,0.000000e+000
4.261912e+002,0.000000e+000
4.281197e+002,0.000000e+000
4.300481e+002,0.000000e+000
4.319766e+002,0.000000e+000
4.339051e+002,0.000000e+000
4.358335e+002,0.000000e+000
4.377620e+002,0.000000e+000
4.396905e+002,0.000000e+000
4.416189e+002,0.000000e+000
4.435474e+002,0.000000e+000
4.454759e+002,0.000000e+000
4.474043e+002,0.000000e+000
4.493328e+002,0.000000e+000
4.512613e+002,0.000000e+000
4.531897e+002,0.000000e+000
4.551182e+002,0.000000e+000
4.570467e+002,0.000000e+000
4.589751e+002,0.000000e+000
4.609036e+002,0.000000e+000
4.628321e+002,0.000000e+000
4.647605e+002,0.000000e+000
4.666890e+002,0.000000e+000
4.686175e+002,0.000000e+000
4.705459e+002,0.000000e+000
4.724744e+002,0.000000e+000
4.744029e+002,0.000000e+000
4.763313e+002,0.000000e+000
4.782598e+002,0.000000e+000
4.801883e+002,0.000000e+000
4.821167e+002,0.000000e+000
4.840452e+002,0.000000e+000
4.859737e+002,0.000000e+000
4.879021e+002,0.000000e+000
4.898306e+002,0.000000e+000
4.917591e+002,0.000000e+000
4.936875e+002,0.000000e+000
4.956160e+002,0.000000e+000
4.975445e+002,0.000000e+000
4.994729e+002,0.000000e+000
5.014014e+002,0.000000e+000
5.033299e+002,0.000000e+000
5.052583e+002,0.000000e+000
5.071868e+002,0.000000e+000
5.091153e+002,0.000000e+000
5.110437e+002,0.000000e+000
5.129722e+002,0.000000e+000
5.149006e+002,0.000000e+000
5.168291e+002,0.000000e+000
5.187576e+002,0.000000e+000
5.206860e+002,0.000000e+000
5.226145e+002,0.000000e+000
5.245430e+002,0.000000e+000
5.264714e+002,0.000000e+000
5.283999e+002,0.000000e+000
5.303284e+002,0.000000e+000
5.322568e+002,0.000000e+000
5.341853e+002,0.000000e+000
5.361138e+002,0.000000e+000
5.380422e+002,0.000000e+000
5.399707e+002,0.000000e+000
5.418992e+002,0.000000e+000
5.438276e+002,0.000000e+000
5.457561e+002,0.000000e+000
5.476846e+002,0.000000e+000
5.496130e+002,0.000000e+000
5.515415e+002,0.000000e+000
5.534700e+002,0.000000e+000
5.553984e+002,0.000000e+000
5.573269e+002,0.000000e+000
5.592554e+002,0.000000e+000
5.611838e+002,0.000000e+000
5.631123e+002,0.000000e+000
5.650408e+002,0.000000e+000
5.669692e+002,0.000000e+000
5.688977e+002,0.000000e+000
5.708262e+002,0.000000e+000
5.727546e+002,0.000000e+000
5.746831e+002,0.000000e+000
5.766116e+002,0.000000e+000
5.785400e+002,0.000000e+000
5.804685e+002,0.000000e+000
5.823970e+002,0.000000e+000
5.843254e+002,0.000000e+000
5.862539e+002,0.000000e+000
5.881824e+002,0.000000e+000
5.901108e+002,0.000000e+000
5.920393e+002,0.000000e+000
5.939678e+002,0.000000e+000
5.958962e+002,0.000000e+000
5.978247e+002,0.000000e+000
5.997532e+002,0.000000e+000
6.016816e+002,0.000000e+000
6.036101e+002,0.000000e+000
6.055386e+002,0.000000e+000
6.074670e+002,0.000000e+000
6.093955e+002,0.000000e+000
6.113240e+002,0.000000e+000
6.132524e+002,0.000000e+000
6.151809e+002,0.000000e+000
6.171094e+002,0.000000e+000
6.190378e+002,0.000000e+000
6.209663e+002,0.000000e+000
6.228948e+002,0.000000e+000
6.248232e+002,0.000000e+000
6.267517e+002,0.000000e+000
6.286802e+002,0.000000e+000
6.306086e+002,0.000000e+000
6.325371e+002,0.000000e+000
6.344656e+002,0.000000e+000
6.363940e+002,0.000000e+000
6.383225e+002,0.000000e+000
6.402510e+002,0.000000e+000
6.421794e+002,0.000000e+000
6.441079e+002,0.000000e+000
6.460364e+002,0.000000e+000
6.479648e+002,0.000000e+000
6.498933e+002,2.001649e-001
6.518218e+002,1.979385e-001
6.537502e+002,1.968359e-001
6.556787e+002,1.969454e-001
6.576072e+002,1.947067e-001
6.595356e+002,1.921604e-001
6.614641e+002,1.909410e-001
6.633926e+002,1.902491e-001
6.653210e+002,1.872021e-001
6.672495e+002,1.846430e-001
6.691780e+002,1.820252e-001
6.711064e+002,1.792821e-001
6.730349e+002,1.774985e-001
6.749634e+002,1.764485e-001
6.768918e+002,1.761742e-001
6.788203e+002,1.742387e-001
6.807488e+002,1.715669e-001
6.826772e+002,1.688044e-001
6.846057e+002,1.672013e-001
6.865342e+002,1.661755e-001
6.884626e+002,1.666063e-001
6.903911e+002,1.670908e-001
6.923196e+002,1.664341e-001
6.942480e+002,1.652617e-001
6.961765e+002,1.639100e-001
6.981050e+002,1.631275e-001
7.000334e+002,1.628640e-001
7.019619e+002,1.619533e-001
7.038904e+002,1.628793e-001
7.058188e+002,1.630878e-001
7.077473e+002,1.604739e-001
7.096758e+002,1.582818e-001
7.116042e+002,1.571921e-001
7.135327e+002,1.552710e-001
7.154612e+002,1.534129e-001
7.173896e+002,1.525419e-001
7.193181e+002,1.513421e-001
7.212466e+002,1.508741e-001
7.231750e+002,1.508038e-001
7.251035e+002,1.494304e-001
7.270320e+002,1.497800e-001
7.289604e+002,1.503427e-001
7.308889e+002,1.497629e-001
7.328174e+002,1.487251e-001
7.347458e+002,1.480924e-001
7.366743e+002,1.470710e-001
7.386028e+002,1.460538e-001
7.405313e+002,1.458243e-001
7.424597e+002,1.461228e-001
7.443882e+002,1.468898e-001
7.463167e+002,1.480886e-001
7.482451e+002,1.489213e-001
7.501736e+002,1.492600e-001
7.521021e+002,1.495669e-001
7.540305e+002,1.491873e-001
7.559590e+002,1.490944e-001
7.578875e+002,1.493562e-001
7.598159e+002,1.481638e-001
7.617444e+002,1.469802e-001
7.636729e+002,1.467267e-001
7.656013e+002,1.463244e-001
7.675298e+002,1.463227e-001
7.694583e+002,1.464849e-001
7.713867e+002,1.459100e-001
7.733152e+002,1.449656e-001
7.752437e+002,1.442884e-001
7.771721e+002,1.448499e-001
7.791006e+002,1.452349e-001
7.810291e+002,1.454971e-001
7.829575e+002,1.446722e-001
7.848860e+002,1.431094e-001
7.868145e+002,1.410175e-001
7.887429e+002,1.385312e-001
7.906714e+002,1.362208e-001
7.925999e+002,1.343009e-001
7.945283e+002,1.339652e-001
7.964568e+002,1.347497e-001
7.983853e+002,1.356377e-001
8.003137e+002,1.372043e-001
8.022422e+002,1.392160e-001
8.041707e+002,1.419762e-001
8.060991e+002,1.456246e-001
8.080276e+002,1.483943e-001
8.099561e+002,1.482906e-001
8.118845e+002,1.487170e-001
8.138130e+002,1.485000e-001
8.157415e+002,1.467698e-001
8.176699e+002,1.459282e-001
8.195984e+002,1.452096e-001
8.215269e+002,1.464632e-001
8.234553e+002,1.473856e-001
8.253838e+002,1.479718e-001
8.273123e+002,1.479422e-001
8.292407e+002,1.468360e-001
8.311692e+002,1.461290e-001
8.330977e+002,1.455593e-001
8.350261e+002,1.434300e-001
8.369546e+002,1.413774e-001
8.388831e+002,1.402099e-001
8.408115e+002,1.398234e-001
8.427400e+002,1.409108e-001
8.446685e+002,1.424664e-001
8.465969e+002,1.449073e-001
8.485254e+002,1.478511e-001
8.504539e+002,1.509290e-001
8.523823e+002,1.563412e-001
8.543108e+002,1.616531e-001
8.562393e+002,1.649627e-001
8.581677e+002,1.671229e-001
8.600962e+002,1.679263e-001
8.620247e+002,1.662292e-001
8.639531e+002,1.626991e-001
8.658816e+002,1.581803e-001
8.678101e+002,1.545326e-001
8.697385e+002,1.538663e-001
8.716670e+002,1.561990e-001
8.735955e+002,1.591373e-001
8.755239e+002,1.599357e-001
8.774524e+002,1.596897e-001
8.793809e+002,1.605821e-001
8.813093e+002,1.637657e-001
8.832378e+002,1.682799e-001
8.851663e+002,1.723547e-001
8.870947e+002,1.760229e-001
8.890232e+002,1.786795e-001
8.909517e+002,1.779607e-001
8.928801e+002,1.741145e-001
8.948086e+002,1.690915e-001
8.967371e+002,1.644740e-001
8.986655e+002,1.612795e-001
9.005940e+002,1.587132e-001
9.025225e+002,1.572123e-001
9.044509e+002,1.563260e-001
9.063794e+002,1.563536e-001
9.083079e+002,1.588050e-001
9.102363e+002,1.624026e-001
9.121648e+002,1.656492e-001
9.140933e+002,1.685070e-001
9.160217e+002,1.709987e-001
9.179502e+002,1.730521e-001
9.198787e+002,1.745230e-001
9.218071e+002,1.748836e-001
9.237356e+002,1.749797e-001
9.256641e+002,1.750224e-001
9.275925e+002,1.743033e-001
9.295210e+002,1.718524e-001
9.314495e+002,1.689409e-001
9.333779e+002,1.670851e-001
9.353064e+002,1.653646e-001
9.372349e+002,1.643721e-001
9.391633e+002,1.658468e-001
9.410918e+002,1.675498e-001
9.430203e+002,1.698790e-001
9.449487e+002,1.734534e-001
9.468772e+002,1.763077e-001
9.488057e+002,1.789234e-001
9.507341e+002,1.810194e-001
9.526626e+002,1.822168e-001
9.545911e+002,1.823262e-001
9.565195e+002,1.831377e-001
9.584480e+002,1.844508e-001
9.603765e+002,1.869307e-001
9.623049e+002,1.905884e-001
9.642334e+002,1.947665e-001
9.661619e+002,1.995850e-001
9.680903e+002,2.044915e-001
9.700188e+002,2.081473e-001
9.719473e+002,2.113317e-001
9.738757e+002,2.141941e-001
9.758042e+002,2.170694e-001
9.777327e+002,2.205228e-001
9.796611e+002,2.252372e-001
9.815896e+002,2.313457e-001
9.835181e+002,2.384404e-001
9.854465e+002,2.444813e-001
9.873750e+002,2.483289e-001
9.893035e+002,2.501834e-001
9.912319e+002,2.520685e-001
9.931604e+002,2.537422e-001
9.950889e+002,2.539890e-001
9.970173e+002,2.534539e-001
9.989458e+002,2.528041e-001
1.000874e+003,2.540205e-001
1.002803e+003,2.579133e-001
1.004731e+003,2.635652e-001
1.006660e+003,2.706398e-001
1.008588e+003,2.773245e-001
1.010517e+003,2.817113e-001
1.012445e+003,2.834345e-001
1.014374e+003,2.840556e-001
1.016302e+003,2.844062e-001
1.018230e+003,2.846946e-001
1.020159e+003,2.856918e-001
1.022087e+003,2.896405e-001
1.024016e+003,2.961369e-001
1.025944e+003,3.039798e-001
1.027873e+003,3.124723e-001
1.029801e+003,3.200487e-001
1.031730e+003,3.247636e-001
1.033658e+003,3.267381e-001
1.035587e+003,3.264383e-001
1.037515e+003,3.260498e-001
1.039444e+003,3.247011e-001
1.041372e+003,3.231965e-001
1.043301e+003,3.225654e-001
1.045229e+003,3.214041e-001
1.047157e+003,3.188671e-001
1.049086e+003,3.147439e-001
1.051014e+003,3.090322e-001
1.052943e+003,3.012071e-001
1.054871e+003,2.930649e-001
1.056800e+003,2.861018e-001
1.058728e+003,2.789099e-001
1.060657e+003,2.721982e-001
1.062585e+003,2.679403e-001
1.064514e+003,2.650434e-001
1.066442e+003,2.630661e-001
1.068371e+003,2.615003e-001
1.070299e+003,2.609036e-001
1.072228e+003,2.609657e-001
1.074156e+003,2.602741e-001
1.076084e+003,2.591803e-001
1.078013e+003,2.571911e-001
1.079941e+003,2.532404e-001
1.081870e+003,2.480864e-001
1.083798e+003,2.434861e-001
1.085727e+003,2.380289e-001
1.087655e+003,2.335452e-001
1.089584e+003,2.302745e-001
1.091512e+003,2.258574e-001
1.093441e+003,2.207072e-001
1.095369e+003,2.167716e-001
1.097298e+003,2.123604e-001
1.099226e+003,2.072203e-001
1.101155e+003,2.035512e-001
1.103083e+003,2.010556e-001
1.105011e+003,1.992652e-001
1.106940e+003,1.985453e-001
1.108868e+003,1.981513e-001
1.110797e+003,1.973277e-001
1.112725e+003,1.976253e-001
1.114654e+003,1.977781e-001
1.116582e+003,1.981167e-001
1.118511e+003,1.980044e-001
1.120439e+003,1.973976e-001
1.122368e+003,1.971390e-001
1.124296e+003,1.962374e-001
1.126225e+003,1.937217e-001
1.128153e+003,1.919845e-001
1.130082e+003,1.912777e-001
1.132010e+003,1.912525e-001
1.133938e+003,1.916352e-001
1.135867e+003,1.907456e-001
1.137795e+003,1.878645e-001
1.139724e+003,1.827715e-001
1.141652e+003,1.758949e-001
1.143581e+003,1.696438e-001
1.145509e+003,1.653253e-001
1.147438e+003,1.617467e-001
1.149366e+003,1.588494e-001
1.151295e+003,1.568274e-001
1.153223e+003,1.549199e-001
1.155152e+003,1.525242e-001
1.157080e+003,1.500760e-001
1.159009e+003,1.477865e-001
1.160937e+003,1.454309e-001
1.162865e+003,1.430342e-001
1.164794e+003,1.416672e-001
1.166722e+003,1.411171e-001
1.168651e+003,1.410045e-001
1.170579e+003,1.412082e-001
1.172508e+003,1.417477e-001
1.174436e+003,1.427920e-001
1.176365e+003,1.441980e-001
1.178293e+003,1.461039e-001
1.180222e+003,1.483243e-001
1.182150e+003,1.508297e-001
1.184079e+003,1.537409e-001
1.186007e+003,1.569166e-001
1.187936e+003,1.598600e-001
1.189864e+003,1.615014e-001
1.191792e+003,1.625321e-001
1.193721e+003,1.630863e-001
1.195649e+003,1.636356e-001
1.197578e+003,1.645786e-001
1.199506e+003,1.657989e-001
1.201435e+003,1.667492e-001
1.203363e+003,1.681866e-001
1.205292e+003,1.694752e-001
1.207220e+003,1.699446e-001
1.209149e+003,1.699961e-001
1.211077e+003,1.696605e-001
1.213006e+003,1.695288e-001
1.214934e+003,1.693891e-001
1.216863e+003,1.694013e-001
1.218791e+003,1.694517e-001
1.220719e+003,1.689371e-001
1.222648e+003,1.684191e-001
1.224576e+003,1.679940e-001
1.226505e+003,1.677499e-001
1.228433e+003,1.680445e-001
1.230362e+003,1.683036e-001
1.232290e+003,1.682094e-001
1.234219e+003,1.680665e-001
1.236147e+003,1.676313e-001
1.238076e+003,1.658435e-001
1.240004e+003,1.638473e-001
1.241933e+003,1.621349e-001
1.243861e+003,1.600309e-001
1.245790e+003,1.582505e-001
1.247718e+003,1.566013e-001
1.249646e+003,1.549564e-001
1.251575e+003,1.539980e-001
1.253503e+003,1.536393e-001
1.255432e+003,1.534964e-001
1.257360e+003,1.530613e-001
1.259289e+003,1.524913e-001
1.261217e+003,1.524765e-001
1.263146e+003,1.530415e-001
1.265074e+003,1.541331e-001
1.267003e+003,1.553168e-001
1.268931e+003,1.562691e-001
1.270860e+003,1.568001e-001
1.272788e+003,1.560543e-001
1.274717e+003,1.537640e-001
1.276645e+003,1.511821e-001
1.278573e+003,1.477754e-001
1.280502e+003,1.437047e-001
1.282430e+003,1.401621e-001
1.284359e+003,1.369559e-001
1.286287e+003,1.335106e-001
1.288216e+003,1.300442e-001
1.290144e+003,1.271784e-001
1.292073e+003,1.241378e-001
1.294001e+003,1.208583e-001
1.295930e+003,1.180388e-001
1.297858e+003,1.155502e-001
1.299787e+003,1.132558e-001
1.301715e+003,1.114988e-001
1.303644e+003,1.098837e-001
1.305572e+003,1.085542e-001
1.307500e+003,1.071968e-001
1.309429e+003,1.061289e-001
1.311357e+003,1.055226e-001
1.313286e+003,1.052622e-001
1.315214e+003,1.047630e-001
1.317143e+003,1.039558e-001
1.319071e+003,1.036385e-001
1.321000e+003,1.032616e-001
1.322928e+003,1.027710e-001
1.324857e+003,1.026719e-001
1.326785e+003,1.027146e-001
1.328714e+003,1.021192e-001
1.330642e+003,1.015302e-001
1.332571e+003,1.013405e-001
1.334499e+003,1.010114e-001
1.336427e+003,1.009440e-001
1.338356e+003,1.011029e-001
1.340284e+003,1.014848e-001
1.342213e+003,1.023180e-001
1.344141e+003,1.033115e-001
1.346070e+003,1.044748e-001
1.347998e+003,1.061124e-001
1.349927e+003,1.079479e-001
1.351855e+003,1.096125e-001
1.353784e+003,1.112015e-001
1.355712e+003,1.119026e-001
1.357641e+003,1.123623e-001
1.359569e+003,1.127264e-001
1.361498e+003,1.125147e-001
1.363426e+003,1.120024e-001
1.365354e+003,1.113630e-001
1.367283e+003,1.103542e-001
1.369211e+003,1.095391e-001
1.371140e+003,1.091445e-001
1.373068e+003,1.089715e-001
1.374997e+003,1.089612e-001
1.376925e+003,1.087597e-001
1.378854e+003,1.082273e-001
1.380782e+003,1.072240e-001
1.382711e+003,1.059496e-001
1.384639e+003,1.049051e-001
1.386568e+003,1.037256e-001
1.388496e+003,1.025288e-001
1.390425e+003,1.019828e-001
1.392353e+003,1.014412e-001
1.394281e+003,1.010781e-001
1.396210e+003,1.010609e-001
1.398138e+003,1.010739e-001
1.400067e+003,1.015511e-001
1.401995e+003,1.021801e-001
1.403924e+003,1.025167e-001
1.405852e+003,1.028304e-001
1.407781e+003,1.029783e-001
1.409709e+003,1.035141e-001
1.411638e+003,1.042069e-001
1.413566e+003,1.043245e-001
1.415495e+003,1.047330e-001
1.417423e+003,1.053943e-001
1.419352e+003,1.061358e-001
1.421280e+003,1.071186e-001
1.423208e+003,1.081974e-001
1.425137e+003,1.094817e-001
1.427065e+003,1.107648e-001
1.428994e+003,1.114618e-001
1.430922e+003,1.117306e-001
1.432851e+003,1.113385e-001
1.434779e+003,1.103810e-001
1.436708e+003,1.092466e-001
1.438636e+003,1.083093e-001
1.440565e+003,1.076815e-001
1.442493e+003,1.077511e-001
1.444422e+003,1.091542e-001
1.446350e+003,1.108068e-001
1.448279e+003,1.119763e-001
1.450207e+003,1.128581e-001
1.452135e+003,1.128702e-001
1.454064e+003,1.119982e-001
1.455992e+003,1.104727e-001
1.457921e+003,1.086450e-001
1.459849e+003,1.077798e-001
1.461778e+003,1.074911e-001
1.463706e+003,1.061391e-001
1.465635e+003,1.029295e-001
1.467563e+003,9.829141e-002
1.469492e+003,9.296290e-002
1.471420e+003,8.826685e-002
1.473349e+003,8.303729e-002
1.475277e+003,7.742766e-002
1.477206e+003,7.273442e-002
1.479134e+003,6.879769e-002
1.481063e+003,6.523605e-002
1.482991e+003,6.214543e-002
1.484919e+003,5.959108e-002
1.486848e+003,5.763777e-002
1.488776e+003,5.644736e-002
1.490705e+003,5.562326e-002
1.492633e+003,5.519356e-002
1.494562e+003,5.563648e-002
1.496490e+003,5.677938e-002
1.498419e+003,5.836802e-002
1.500347e+003,6.086013e-002
1.502276e+003,6.413326e-002
1.504204e+003,6.739535e-002
1.506133e+003,7.160328e-002
1.508061e+003,7.766803e-002
1.509990e+003,8.511155e-002
1.511918e+003,9.240491e-002
1.513846e+003,9.675754e-002
1.515775e+003,9.521578e-002
1.517703e+003,8.743475e-002
1.519632e+003,7.606489e-002
1.521560e+003,6.477998e-002
1.523489e+003,5.552576e-002
1.525417e+003,4.830152e-002
1.527346e+003,4.236906e-002
1.529274e+003,3.782620e-002
1.531203e+003,3.484847e-002
1.533131e+003,3.331993e-002
1.535060e+003,3.321873e-002
1.536988e+003,3.408790e-002
1.538917e+003,3.540873e-002
1.540845e+003,3.587880e-002
1.542773e+003,3.518555e-002
1.544702e+003,3.390416e-002
1.546630e+003,3.257246e-002
1.548559e+003,3.198346e-002
1.550487e+003,3.200129e-002
1.552416e+003,3.252900e-002
1.554344e+003,3.379709e-002
1.556273e+003,3.517843e-002
1.558201e+003,3.630679e-002
1.560130e+003,3.727408e-002
1.562058e+003,3.856029e-002
1.563987e+003,3.993637e-002
1.565915e+003,4.103402e-002
1.567844e+003,4.261464e-002
1.569772e+003,4.494051e-002
1.571700e+003,4.740014e-002
1.573629e+003,4.993637e-002
1.575557e+003,5.288596e-002
1.577486e+003,5.538236e-002
1.579414e+003,5.731083e-002
1.581343e+003,5.909799e-002
1.583271e+003,6.060050e-002
1.585200e+003,6.176390e-002
1.587128e+003,6.302974e-002
1.589057e+003,6.493036e-002
1.590985e+003,6.667191e-002
1.592914e+003,6.831978e-002
1.594842e+003,6.992213e-002
1.596771e+003,7.170323e-002
1.598699e+003,7.319470e-002
1.600627e+003,7.402579e-002
1.602556e+003,7.456765e-002
1.604484e+003,7.466065e-002
1.606413e+003,7.443528e-002
1.608341e+003,7.362712e-002
1.610270e+003,7.271829e-002
1.612198e+003,7.153080e-002
1.614127e+003,6.934848e-002
1.616055e+003,6.690631e-002
1.617984e+003,6.453726e-002
1.619912e+003,6.202995e-002
1.621841e+003,6.019497e-002
1.623769e+003,5.906040e-002
1.625698e+003,5.808466e-002
1.627626e+003,5.718793e-002
1.629554e+003,5.636461e-002
1.631483e+003,5.587525e-002
1.633411e+003,5.543164e-002
1.635340e+003,5.525858e-002
1.637268e+003,5.538210e-002
1.639197e+003,5.554696e-002
1.641125e+003,5.591120e-002
1.643054e+003,5.588870e-002
1.644982e+003,5.607475e-002
1.646911e+003,5.660628e-002
1.648839e+003,5.692600e-002
1.650768e+003,5.698259e-002
1.652696e+003,5.712523e-002
1.654625e+003,5.768881e-002
1.656553e+003,5.822077e-002
1.658481e+003,5.880883e-002
1.660410e+003,5.926077e-002
1.662338e+003,5.940880e-002
1.664267e+003,5.989661e-002
1.666195e+003,6.073538e-002
1.668124e+003,6.160334e-002
1.670052e+003,6.249486e-002
1.671981e+003,6.342232e-002
1.673909e+003,6.470110e-002
1.675838e+003,6.639620e-002
1.677766e+003,6.827283e-002
1.679695e+003,7.028359e-002
1.681623e+003,7.261175e-002
1.683552e+003,7.517655e-002
1.685480e+003,7.774744e-002
1.687408e+003,8.086542e-002
1.689337e+003,8.438819e-002
1.691265e+003,8.790277e-002
1.693194e+003,9.151343e-002
1.695122e+003,9.491286e-002
1.697051e+003,9.788632e-002
1.698979e+003,1.005484e-001
1.700908e+003,1.030638e-001
1.702836e+003,1.050966e-001
1.704765e+003,1.067341e-001
1.706693e+003,1.081138e-001
1.708622e+003,1.086771e-001
1.710550e+003,1.086222e-001
1.712479e+003,1.079510e-001
1.714407e+003,1.066375e-001
1.716335e+003,1.049048e-001
1.718264e+003,1.029171e-001
1.720192e+003,1.008337e-001
1.722121e+003,9.842850e-002
1.724049e+003,9.550282e-002
1.725978e+003,9.252605e-002
1.727906e+003,8.972897e-002
1.729835e+003,8.719123e-002
1.731763e+003,8.474970e-002
1.733692e+003,8.217403e-002
1.735620e+003,7.962269e-002
1.737549e+003,7.708953e-002
1.739477e+003,7.445302e-002
1.741406e+003,7.184943e-002
1.743334e+003,6.935742e-002
1.745262e+003,6.674428e-002
1.747191e+003,6.414752e-002
1.749119e+003,6.188982e-002
1.751048e+003,5.963654e-002
1.752976e+003,5.736066e-002
1.754905e+003,5.521147e-002
1.756833e+003,5.314510e-002
1.758762e+003,5.124253e-002
1.760690e+003,4.938272e-002
1.762619e+003,4.718393e-002
1.764547e+003,4.497384e-002
1.766476e+003,4.287338e-002
1.768404e+003,4.050451e-002
1.770333e+003,3.858064e-002
1.772261e+003,3.691176e-002
1.774189e+003,3.524997e-002
1.776118e+003,3.360695e-002
1.778046e+003,3.185975e-002
1.779975e+003,2.996573e-002
1.781903e+003,2.801377e-002
1.783832e+003,2.634704e-002
1.785760e+003,2.487748e-002
1.787689e+003,2.343596e-002
1.789617e+003,2.197428e-002
1.791546e+003,2.054276e-002
1.793474e+003,1.903289e-002
1.795403e+003,1.779766e-002
1.797331e+003,1.660508e-002
1.799260e+003,1.535685e-002
1.801188e+003,1.414181e-002
1.803116e+003,1.314906e-002
1.805045e+003,1.239453e-002
1.806973e+003,1.149833e-002
1.808902e+003,1.081874e-002
1.810830e+003,1.049682e-002
1.812759e+003,9.944489e-003
1.814687e+003,9.475715e-003
1.816616e+003,9.195540e-003
1.818544e+003,8.655435e-003
1.820473e+003,8.187375e-003
1.822401e+003,8.146859e-003
1.824330e+003,8.351874e-003
1.826258e+003,8.303709e-003
1.828187e+003,8.064050e-003
1.830115e+003,8.100473e-003
1.832043e+003,8.051358e-003
1.833972e+003,7.729093e-003
1.835900e+003,7.535363e-003
1.837829e+003,7.550063e-003
1.839757e+003,7.642216e-003
1.841686e+003,7.700694e-003
1.843614e+003,7.712769e-003
1.845543e+003,7.700357e-003
1.847471e+003,7.587859e-003
1.849400e+003,7.570124e-003
1.851328e+003,7.626974e-003
1.853257e+003,7.761643e-003
1.855185e+003,7.696984e-003
1.857114e+003,7.607787e-003
1.859042e+003,7.776249e-003
1.860970e+003,7.739414e-003
1.862899e+003,7.373802e-003
1.864827e+003,7.328375e-003
1.866756e+003,7.559301e-003
1.868684e+003,7.682347e-003
1.870613e+003,7.525182e-003
1.872541e+003,7.581857e-003
1.874470e+003,7.610451e-003
1.876398e+003,7.495583e-003
1.878327e+003,7.315065e-003
1.880255e+003,7.220151e-003
1.882183e+003,7.208326e-003
1.884112e+003,7.277595e-003
1.886040e+003,7.426144e-003
1.887969e+003,7.577879e-003
1.889897e+003,7.521979e-003
1.891826e+003,7.344888e-003
1.893754e+003,7.291916e-003
1.895683e+003,7.346236e-003
1.897611e+003,7.286423e-003
1.899540e+003,7.223992e-003
1.901468e+003,7.210516e-003
1.903397e+003,7.203644e-003
1.905325e+003,7.235615e-003
1.907254e+003,7.317457e-003
1.909182e+003,7.273181e-003
1.911110e+003,7.345022e-003
1.913039e+003,7.320726e-003
1.914967e+003,7.460356e-003
1.916896e+003,7.708384e-003
1.918824e+003,7.654322e-003
1.920753e+003,7.525654e-003
1.922681e+003,7.571809e-003
1.924610e+003,7.597975e-003
1.926538e+003,7.652063e-003
1.928467e+003,7.625490e-003
1.930395e+003,7.517226e-003
1.932324e+003,7.355503e-003
1.934252e+003,7.292960e-003
1.936181e+003,7.421155e-003
1.938109e+003,7.509843e-003
1.940037e+003,7.293769e-003
1.941966e+003,7.267420e-003
1.943894e+003,7.306169e-003
1.945823e+003,7.231606e-003
1.947751e+003,7.314728e-003
1.949680e+003,7.384149e-003
1.951608e+003,7.355975e-003
1.953537e+003,7.146411e-003
1.955465e+003,7.155236e-003
1.957394e+003,7.116905e-003
1.959322e+003,7.192493e-003
1.961251e+003,7.396518e-003
1.963179e+003,7.341989e-003
1.965108e+003,7.152979e-003
1.967036e+003,7.163085e-003
1.968964e+003,7.311426e-003
1.970893e+003,7.283391e-003
1.972821e+003,7.220218e-003
1.974750e+003,7.372724e-003
1.976678e+003,7.437064e-003
1.978607e+003,7.376633e-003
1.980535e+003,7.469053e-003
1.982464e+003,7.407876e-003
1.984392e+003,7.393316e-003
1.986321e+003,7.478053e-003
1.988249e+003,7.556064e-003
1.990178e+003,7.480413e-003
1.992106e+003,7.379464e-003
1.994035e+003,7.403056e-003
1.995963e+003,7.263410e-003
1.997891e+003,7.161266e-003
1.999820e+003,7.233998e-003
2.001748e+003,7.352975e-003
2.003677e+003,7.487694e-003
2.005605e+003,7.747206e-003
2.007534e+003,7.582869e-003
2.009462e+003,7.313919e-003
2.011391e+003,7.596356e-003
2.013319e+003,7.902259e-003
2.015248e+003,7.870542e-003
2.017176e+003,7.681201e-003
2.019105e+003,7.589377e-003
2.021033e+003,7.644408e-003
2.022962e+003,7.536341e-003
2.024890e+003,7.232448e-003
2.026818e+003,7.271362e-003
2.028747e+003,7.490964e-003
2.030675e+003,7.640226e-003
2.032604e+003,7.844259e-003
2.034532e+003,7.691184e-003
2.036461e+003,7.719008e-003
2.038389e+003,7.956993e-003
2.040318e+003,7.931278e-003
2.042246e+003,7.828774e-003
2.044175e+003,7.747206e-003
2.046103e+003,7.789169e-003
2.048032e+003,7.976836e-003
2.049960e+003,8.056523e-003
2.051889e+003,8.014973e-003
2.053817e+003,7.879686e-003
2.055746e+003,7.771223e-003
2.057674e+003,7.678064e-003
2.059603e+003,7.538465e-003
2.061531e+003,7.759383e-003
2.063459e+003,7.796017e-003
2.065388e+003,7.671690e-003
2.067316e+003,7.811063e-003
2.069245e+003,7.649365e-003
2.071173e+003,7.434469e-003
2.073102e+003,7.372656e-003
2.075030e+003,7.520462e-003
2.076959e+003,7.760395e-003
2.078887e+003,7.864907e-003
2.080816e+003,7.735873e-003
2.082744e+003,7.672533e-003
2.084673e+003,7.706158e-003
2.086601e+003,7.720223e-003
2.088530e+003,7.688924e-003
2.090458e+003,7.663900e-003
2.092386e+003,7.672972e-003
2.094315e+003,7.499493e-003
2.096243e+003,7.550097e-003
2.098172e+003,7.464266e-003
2.100100e+003,7.437705e-003
2.102029e+003,7.580407e-003
2.103957e+003,7.713106e-003
2.105886e+003,7.583307e-003
2.107814e+003,7.495785e-003
2.109743e+003,7.541499e-003
2.111671e+003,7.608293e-003
2.113600e+003,7.713814e-003
2.115528e+003,7.435649e-003
2.117457e+003,7.215872e-003
2.119385e+003,7.431031e-003
2.121313e+003,7.663731e-003
2.123242e+003,7.618678e-003
2.125170e+003,7.577171e-003
2.127099e+003,7.513011e-003
2.129027e+003,7.479503e-003
2.130956e+003,7.531250e-003
2.132884e+003,7.401000e-003
2.134813e+003,7.382363e-003
2.136741e+003,7.392271e-003
2.138670e+003,7.298082e-003
2.140598e+003,7.404640e-003
2.142527e+003,7.548411e-003
2.144455e+003,7.656548e-003
2.146384e+003,7.518305e-003
2.148312e+003,7.354728e-003
2.150240e+003,7.249732e-003
2.152169e+003,7.204283e-003
2.154097e+003,7.286188e-003
2.156026e+003,7.397394e-003
2.157954e+003,7.465783e-003
2.159883e+003,7.441952e-003
2.161811e+003,7.168407e-003
2.163740e+003,7.089557e-003
2.165668e+003,7.319883e-003
2.167597e+003,7.413976e-003
2.169525e+003,7.138798e-003
2.171454e+003,7.094474e-003
2.173382e+003,7.236289e-003
2.175311e+003,7.423481e-003
2.177239e+003,7.379666e-003
2.179167e+003,7.204486e-003
2.181096e+003,7.174201e-003
2.183024e+003,7.151127e-003
2.184953e+003,7.126404e-003
2.186881e+003,7.132365e-003
2.188810e+003,7.262231e-003
2.190738e+003,7.207686e-003
2.192667e+003,7.121620e-003
2.194595e+003,7.180366e-003
2.196524e+003,7.218231e-003
2.198452e+003,7.041431e-003
2.200381e+003,7.156921e-003
2.202309e+003,7.351830e-003
2.204238e+003,7.384520e-003
2.206166e+003,7.261355e-003
2.208094e+003,7.034393e-003
2.210023e+003,6.950011e-003
2.211951e+003,6.984490e-003
2.213880e+003,6.968530e-003
2.215808e+003,7.092453e-003
2.217737e+003,6.994827e-003
2.219665e+003,6.874971e-003
2.221594e+003,6.907221e-003
2.223522e+003,7.059515e-003
2.225451e+003,6.938733e-003
2.227379e+003,6.711468e-003
2.229308e+003,6.798260e-003
2.231236e+003,6.993514e-003
2.233165e+003,7.050490e-003
2.235093e+003,7.255729e-003
2.237021e+003,7.393383e-003
2.238950e+003,7.319513e-003
2.240878e+003,7.468884e-003
2.242807e+003,7.376600e-003
2.244735e+003,7.097370e-003
2.246664e+003,7.230494e-003
2.248592e+003,7.376431e-003
2.250521e+003,7.473199e-003
2.252449e+003,7.399955e-003
2.254378e+003,7.239725e-003
2.256306e+003,7.256268e-003
2.258235e+003,7.328072e-003
2.260163e+003,7.278438e-003
2.262092e+003,7.271025e-003
2.264020e+003,7.508224e-003
2.265948e+003,7.466390e-003
2.267877e+003,7.133544e-003
2.269805e+003,7.332689e-003
2.271734e+003,7.398574e-003
2.273662e+003,7.458840e-003
2.275591e+003,7.507719e-003
2.277519e+003,7.378419e-003
2.279448e+003,7.334812e-003
2.281376e+003,7.412527e-003
2.283305e+003,7.507618e-003
2.285233e+003,7.524946e-003
2.287162e+003,7.559773e-003
2.289090e+003,7.544331e-003
2.291019e+003,7.646229e-003
2.292947e+003,7.683089e-003
2.294875e+003,7.628188e-003
2.296804e+003,7.719177e-003
2.298732e+003,7.837545e-003
2.300661e+003,7.687878e-003
2.302589e+003,7.531891e-003
2.304518e+003,7.613688e-003
2.306446e+003,7.890078e-003
2.308375e+003,8.068371e-003
2.310303e+003,7.871756e-003
2.312232e+003,7.887008e-003
2.314160e+003,8.066683e-003
2.316089e+003,7.976498e-003
2.318017e+003,7.802831e-003
2.319946e+003,7.827458e-003
2.321874e+003,7.970829e-003
2.323802e+003,8.003025e-003
2.325731e+003,7.977106e-003
2.327659e+003,8.036777e-003
2.329588e+003,8.125252e-003
2.331516e+003,7.862309e-003
2.333445e+003,7.824894e-003
2.335373e+003,8.082650e-003
2.337302e+003,8.277299e-003
2.339230e+003,8.327520e-003
2.341159e+003,8.206452e-003
2.343087e+003,8.117555e-003
2.345016e+003,8.193182e-003
2.346944e+003,8.246703e-003
2.348873e+003,8.319684e-003
2.350801e+003,8.244880e-003
2.352729e+003,8.358798e-003
2.354658e+003,8.314112e-003
2.356586e+003,8.246703e-003
2.358515e+003,8.369235e-003
2.360443e+003,8.341943e-003
2.362372e+003,8.447136e-003
2.364300e+003,8.413387e-003
2.366229e+003,8.375923e-003
2.368157e+003,8.491092e-003
2.370086e+003,8.479908e-003
2.372014e+003,8.518056e-003
2.373943e+003,8.511332e-003
2.375871e+003,8.361230e-003
2.377800e+003,8.444400e-003
2.379728e+003,8.569082e-003
2.381656e+003,8.419467e-003
2.383585e+003,8.403083e-003
2.385513e+003,8.465684e-003
2.387442e+003,8.586420e-003
2.389370e+003,8.623663e-003
2.391299e+003,8.431393e-003
2.393227e+003,8.419299e-003
2.395156e+003,8.675109e-003
2.397084e+003,8.802258e-003
2.399013e+003,8.916525e-003
2.400941e+003,8.785251e-003
2.402870e+003,8.679874e-003
2.404798e+003,8.940506e-003
2.406727e+003,9.108606e-003
2.408655e+003,8.981434e-003
2.410583e+003,8.900258e-003
2.412512e+003,9.029165e-003
2.414440e+003,9.081064e-003
2.416369e+003,8.865830e-003
2.418297e+003,8.902795e-003
2.420226e+003,9.137029e-003
2.422154e+003,9.220551e-003
2.424083e+003,9.451841e-003
2.426011e+003,9.517473e-003
2.427940e+003,9.355004e-003
2.429868e+003,9.407889e-003
2.431797e+003,9.523502e-003
2.433725e+003,9.446220e-003
2.435654e+003,9.499185e-003
2.437582e+003,9.686372e-003
2.439510e+003,9.682815e-003
2.441439e+003,9.561944e-003
2.443367e+003,9.572004e-003
2.445296e+003,9.519979e-003
2.447224e+003,9.522960e-003
2.449153e+003,9.725609e-003
2.451081e+003,9.850084e-003
2.453010e+003,9.829273e-003
2.454938e+003,9.717206e-003
2.456867e+003,9.821648e-003
2.458795e+003,1.007466e-002
2.460724e+003,1.002016e-002
2.462652e+003,9.914149e-003
2.464581e+003,1.018075e-002
2.466509e+003,1.045236e-002
2.468438e+003,1.037169e-002
2.470366e+003,1.016552e-002
2.472294e+003,1.024832e-002
2.474223e+003,1.028377e-002
2.476151e+003,1.057847e-002
2.478080e+003,1.069103e-002
2.480008e+003,1.076402e-002
2.481937e+003,1.078613e-002
2.483865e+003,1.052401e-002
2.485794e+003,1.070506e-002
2.487722e+003,1.107797e-002
2.489651e+003,1.119192e-002
2.491579e+003,1.093884e-002
2.493508e+003,1.079601e-002
2.495436e+003,1.088991e-002
2.497365e+003,1.109942e-002
2.499293e+003,1.131481e-002
2.501221e+003,1.127649e-002
2.503150e+003,1.109602e-002
2.505078e+003,1.109762e-002
2.507007e+003,1.127883e-002
2.508935e+003,1.115915e-002
2.510864e+003,1.104415e-002
2.512792e+003,1.139651e-002
2.514721e+003,1.164853e-002
2.516649e+003,1.155984e-002
2.518578e+003,1.152354e-002
2.520506e+003,1.150547e-002
2.522435e+003,1.160034e-002
2.524363e+003,1.176539e-002
2.526292e+003,1.162780e-002
2.528220e+003,1.175858e-002
2.530148e+003,1.199794e-002
2.532077e+003,1.183770e-002
2.534005e+003,1.163271e-002
2.535934e+003,1.178071e-002
2.537862e+003,1.193697e-002
2.539791e+003,1.198278e-002
2.541719e+003,1.201051e-002
2.543648e+003,1.195052e-002
2.545576e+003,1.192863e-002
2.547505e+003,1.191323e-002
2.549433e+003,1.212613e-002
2.551362e+003,1.230198e-002
2.553290e+003,1.223388e-002
2.555219e+003,1.228954e-002
2.557147e+003,1.252305e-002
2.559075e+003,1.272454e-002
2.561004e+003,1.241550e-002
2.562932e+003,1.211295e-002
2.564861e+003,1.220893e-002
2.566789e+003,1.228562e-002
2.568718e+003,1.240998e-002
2.570646e+003,1.242092e-002
2.572575e+003,1.243067e-002
2.574503e+003,1.257349e-002
2.576432e+003,1.294716e-002
2.578360e+003,1.286036e-002
2.580289e+003,1.256176e-002
2.582217e+003,1.281579e-002
2.584146e+003,1.288866e-002
2.586074e+003,1.271578e-002
2.588002e+003,1.287449e-002
2.589931e+003,1.301776e-002
2.591859e+003,1.316419e-002
2.593788e+003,1.339233e-002
2.595716e+003,1.359474e-002
2.597645e+003,1.349034e-002
2.599573e+003,1.325283e-002
2.601502e+003,1.321125e-002
2.603430e+003,1.331333e-002
2.605359e+003,1.362127e-002
2.607287e+003,1.400159e-002
2.609216e+003,1.405532e-002
2.611144e+003,1.389788e-002
2.613073e+003,1.380949e-002
2.615001e+003,1.396843e-002
2.616929e+003,1.385485e-002
2.618858e+003,1.381230e-002
2.620786e+003,1.385061e-002
2.622715e+003,1.395246e-002
2.624643e+003,1.420857e-002
2.626572e+003,1.430636e-002
2.628500e+003,1.414359e-002
2.630429e+003,1.399598e-002
2.632357e+003,1.392823e-002
2.634286e+003,1.433605e-002
2.636214e+003,1.457251e-002
2.638143e+003,1.451033e-002
2.640071e+003,1.471679e-002
2.642000e+003,1.466634e-002
2.643928e+003,1.459814e-002
2.645856e+003,1.476663e-002
2.647785e+003,1.462518e-002
2.649713e+003,1.441307e-002
2.651642e+003,1.428078e-002
2.653570e+003,1.434680e-002
2.655499e+003,1.484305e-002
2.657427e+003,1.509711e-002
2.659356e+003,1.505142e-002
2.661284e+003,1.493354e-002
2.663213e+003,1.484675e-002
2.665141e+003,1.463508e-002
2.667070e+003,1.471429e-002
2.668998e+003,1.492195e-002
2.670927e+003,1.506679e-002
2.672855e+003,1.512274e-002
2.674783e+003,1.534700e-002
2.676712e+003,1.525011e-002
2.678640e+003,1.502689e-002
2.680569e+003,1.526597e-002
2.682497e+003,1.532311e-002
2.684426e+003,1.521617e-002
2.686354e+003,1.538064e-002
2.688283e+003,1.526827e-002
2.690211e+003,1.527458e-002
2.692140e+003,1.521874e-002
2.694068e+003,1.506483e-002
2.695997e+003,1.521161e-002
2.697925e+003,1.549377e-002
2.699854e+003,1.538071e-002
2.701782e+003,1.547756e-002
2.703710e+003,1.555050e-002
2.705639e+003,1.575677e-002
2.707567e+003,1.593296e-002
2.709496e+003,1.586034e-002
2.711424e+003,1.559573e-002
2.713353e+003,1.567006e-002
2.715281e+003,1.591059e-002
2.717210e+003,1.625161e-002
2.719138e+003,1.656346e-002
2.721067e+003,1.663651e-002
2.722995e+003,1.639118e-002
2.724924e+003,1.621721e-002
2.726852e+003,1.641265e-002
2.728781e+003,1.664832e-002
2.730709e+003,1.663885e-002
2.732637e+003,1.670317e-002
2.734566e+003,1.664374e-002
2.736494e+003,1.653148e-002
2.738423e+003,1.641230e-002
2.740351e+003,1.639517e-002
2.742280e+003,1.660443e-002
2.744208e+003,1.689652e-002
2.746137e+003,1.696563e-002
2.748065e+003,1.682756e-002
2.749994e+003,1.651004e-002
2.751922e+003,1.633878e-002
2.753851e+003,1.686242e-002
2.755779e+003,1.726283e-002
2.757708e+003,1.728303e-002
2.759636e+003,1.688598e-002
2.761564e+003,1.684116e-002
2.763493e+003,1.724266e-002
2.765421e+003,1.746133e-002
2.767350e+003,1.737234e-002
2.769278e+003,1.741718e-002
2.771207e+003,1.728400e-002
2.773135e+003,1.718974e-002
2.775064e+003,1.779121e-002
2.776992e+003,1.787448e-002
2.778921e+003,1.759805e-002
2.780849e+003,1.788401e-002
2.782778e+003,1.809878e-002
2.784706e+003,1.815934e-002
2.786635e+003,1.841190e-002
2.788563e+003,1.867553e-002
2.790491e+003,1.843022e-002
2.792420e+003,1.832725e-002
2.794348e+003,1.869362e-002
2.796277e+003,1.919113e-002
2.798205e+003,1.946708e-002
2.800134e+003,1.960142e-002
2.802062e+003,1.952551e-002
2.803991e+003,1.973275e-002
2.805919e+003,2.011357e-002
2.807848e+003,2.041401e-002
2.809776e+003,2.092906e-002
2.811705e+003,2.125191e-002
2.813633e+003,2.160990e-002
2.815562e+003,2.187667e-002
2.817490e+003,2.211731e-002
2.819418e+003,2.270568e-002
2.821347e+003,2.327177e-002
2.823275e+003,2.380244e-002
2.825204e+003,2.418583e-002
2.827132e+003,2.493419e-002
2.829061e+003,2.604152e-002
2.830989e+003,2.659349e-002
2.832918e+003,2.746809e-002
2.834846e+003,2.869549e-002
2.836775e+003,2.989321e-002
2.838703e+003,3.104759e-002
2.840632e+003,3.240342e-002
2.842560e+003,3.415002e-002
2.844489e+003,3.710764e-002
2.846417e+003,4.134269e-002
2.848345e+003,4.473390e-002
2.850274e+003,4.453212e-002
2.852202e+003,4.223111e-002
2.854131e+003,3.963443e-002
2.856059e+003,3.819219e-002
2.857988e+003,3.774162e-002
2.859916e+003,3.779577e-002
2.861845e+003,3.766121e-002
2.863773e+003,3.763982e-002
2.865702e+003,3.836893e-002
2.867630e+003,3.942183e-002
2.869558e+003,4.011099e-002
2.871487e+003,4.083315e-002
2.873415e+003,4.085670e-002
2.875344e+003,4.101869e-002
2.877272e+003,4.187889e-002
2.879201e+003,4.259625e-002
2.881129e+003,4.309839e-002
2.883058e+003,4.329848e-002
2.884986e+003,4.387712e-002
2.886915e+003,4.476942e-002
2.888843e+003,4.513829e-002
2.890771e+003,4.572738e-002
2.892700e+003,4.696599e-002
2.894628e+003,4.771474e-002
2.896557e+003,4.853244e-002
2.898485e+003,4.914897e-002
2.900414e+003,4.947583e-002
2.902342e+003,5.038437e-002
2.904271e+003,5.162590e-002
2.906199e+003,5.310308e-002
2.908128e+003,5.476986e-002
2.910056e+003,5.720683e-002
2.911985e+003,6.062366e-002
2.913913e+003,6.469437e-002
2.915842e+003,6.751568e-002
2.917770e+003,6.765074e-002
2.919698e+003,6.646130e-002
2.921627e+003,6.451120e-002
2.923555e+003,6.226489e-002
2.925484e+003,6.044015e-002
2.927412e+003,5.923506e-002
2.929341e+003,5.815284e-002
2.931269e+003,5.726315e-002
2.933198e+003,5.666498e-002
2.935126e+003,5.563794e-002
2.937055e+003,5.439910e-002
2.938983e+003,5.307384e-002
2.940912e+003,5.249012e-002
2.942840e+003,5.207950e-002
2.944769e+003,5.090752e-002
2.946697e+003,4.950744e-002
2.948625e+003,4.862852e-002
2.950554e+003,4.877060e-002
2.952482e+003,4.959315e-002
2.954411e+003,4.996083e-002
2.956339e+003,4.928476e-002
2.958268e+003,4.836459e-002
2.960196e+003,4.767084e-002
2.962125e+003,4.702181e-002
2.964053e+003,4.594124e-002
2.965982e+003,4.487140e-002
2.967910e+003,4.409429e-002
2.969839e+003,4.297869e-002
2.971767e+003,4.171840e-002
2.973696e+003,4.089114e-002
2.975624e+003,3.984647e-002
2.977552e+003,3.891762e-002
2.979481e+003,3.799093e-002
2.981409e+003,3.666750e-002
2.983338e+003,3.514642e-002
2.985266e+003,3.389681e-002
2.987195e+003,3.294895e-002
2.989123e+003,3.211830e-002
2.991052e+003,3.120225e-002
2.992980e+003,3.045706e-002
2.994909e+003,3.001174e-002
2.996837e+003,2.930691e-002
2.998766e+003,2.861953e-002
3.000694e+003,2.814176e-002
3.002623e+003,2.769896e-002
3.004551e+003,2.714862e-002
3.006479e+003,2.642366e-002
3.008408e+003,2.611126e-002
3.010336e+003,2.587184e-002
3.012265e+003,2.564784e-002
3.014193e+003,2.504488e-002
3.016122e+003,2.480209e-002
3.018050e+003,2.508887e-002
3.019979e+003,2.460722e-002
3.021907e+003,2.424006e-002
3.023836e+003,2.443476e-002
3.025764e+003,2.471657e-002
3.027693e+003,2.458874e-002
3.029621e+003,2.460098e-002
3.031550e+003,2.474649e-002
3.033478e+003,2.441980e-002
3.035406e+003,2.413864e-002
3.037335e+003,2.428624e-002
3.039263e+003,2.474519e-002
3.041192e+003,2.470629e-002
3.043120e+003,2.454817e-002
3.045049e+003,2.464081e-002
3.046977e+003,2.475908e-002
3.048906e+003,2.478041e-002
3.050834e+003,2.520869e-002
3.052763e+003,2.542800e-002
3.054691e+003,2.519497e-002
3.056620e+003,2.561389e-002
3.058548e+003,2.623140e-002
3.060477e+003,2.615306e-002
3.062405e+003,2.621423e-002
3.064333e+003,2.662199e-002
3.066262e+003,2.678111e-002
3.068190e+003,2.704106e-002
3.070119e+003,2.727336e-002
3.072047e+003,2.698358e-002
3.073976e+003,2.684645e-002
3.075904e+003,2.714245e-002
3.077833e+003,2.723755e-002
3.079761e+003,2.736101e-002
3.081690e+003,2.762667e-002
3.083618e+003,2.791041e-002
3.085547e+003,2.803261e-002
3.087475e+003,2.821909e-002
3.089404e+003,2.829533e-002
3.091332e+003,2.833709e-002
3.093260e+003,2.855017e-002
3.095189e+003,2.909995e-002
3.097117e+003,2.968451e-002
3.099046e+003,3.003773e-002
3.100974e+003,3.043062e-002
3.102903e+003,3.041843e-002
3.104831e+003,3.010904e-002
3.106760e+003,3.030270e-002
3.108688e+003,3.125227e-002
3.110617e+003,3.170250e-002
3.112545e+003,3.161839e-002
3.114474e+003,3.133161e-002
3.116402e+003,3.129842e-002
3.118331e+003,3.167270e-002
3.120259e+003,3.226603e-002
3.122188e+003,3.268333e-002
3.124116e+003,3.253182e-002
3.126044e+003,3.296750e-002
3.127973e+003,3.348890e-002
3.129901e+003,3.387922e-002
3.131830e+003,3.380150e-002
3.133758e+003,3.395488e-002
3.135687e+003,3.485185e-002
3.137615e+003,3.517003e-002
3.139544e+003,3.525342e-002
3.141472e+003,3.526460e-002
3.143401e+003,3.556132e-002
3.145329e+003,3.591986e-002
3.147258e+003,3.625637e-002
3.149186e+003,3.675963e-002
3.151115e+003,3.767979e-002
3.153043e+003,3.814979e-002
3.154971e+003,3.826405e-002
3.156900e+003,3.841222e-002
3.158828e+003,3.872671e-002
3.160757e+003,3.956289e-002
3.162685e+003,4.014548e-002
3.164614e+003,4.068012e-002
3.166542e+003,4.095693e-002
3.168471e+003,4.130935e-002
3.170399e+003,4.173358e-002
3.172328e+003,4.166450e-002
3.174256e+003,4.205622e-002
3.176185e+003,4.272156e-002
3.178113e+003,4.287916e-002
3.180042e+003,4.314296e-002
3.181970e+003,4.350507e-002
3.183898e+003,4.384289e-002
3.185827e+003,4.427936e-002
3.187755e+003,4.475550e-002
3.189684e+003,4.537937e-002
3.191612e+003,4.621660e-002
3.193541e+003,4.627915e-002
3.195469e+003,4.646876e-002
3.197398e+003,4.713030e-002
3.199326e+003,4.745750e-002
3.201255e+003,4.763280e-002
3.203183e+003,4.788559e-002
3.205112e+003,4.792193e-002
3.207040e+003,4.848102e-002
3.208969e+003,4.918507e-002
3.210897e+003,4.971087e-002
3.212825e+003,5.034392e-002
3.214754e+003,5.083346e-002
3.216682e+003,5.068059e-002
3.218611e+003,5.081689e-002
3.220539e+003,5.152736e-002
3.222468e+003,5.198735e-002
3.224396e+003,5.219655e-002
3.226325e+003,5.262025e-002
3.228253e+003,5.351220e-002
3.230182e+003,5.385530e-002
3.232110e+003,5.430436e-002
3.234039e+003,5.495111e-002
3.235967e+003,5.525952e-002
3.237896e+003,5.547452e-002
3.239824e+003,5.604380e-002
3.241752e+003,5.691629e-002
3.243681e+003,5.722467e-002
3.245609e+003,5.702770e-002
3.247538e+003,5.712682e-002
3.249466e+003,5.769414e-002
3.251395e+003,5.761280e-002
3.253323e+003,5.810466e-002
3.255252e+003,5.873998e-002
3.257180e+003,5.935181e-002
3.259109e+003,5.962186e-002
3.261037e+003,5.991369e-002
3.262966e+003,6.012887e-002
3.264894e+003,6.041307e-002
3.266823e+003,6.115225e-002
3.268751e+003,6.131161e-002
3.270679e+003,6.133511e-002
3.272608e+003,6.143048e-002
3.274536e+003,6.154298e-002
3.276465e+003,6.251188e-002
3.278393e+003,6.344622e-002
3.280322e+003,6.363672e-002
3.282250e+003,6.392796e-002
3.284179e+003,6.428396e-002
3.286107e+003,6.459328e-002
3.288036e+003,6.494322e-002
3.289964e+003,6.558643e-002
3.291893e+003,6.644887e-002
3.293821e+003,6.679230e-002
3.295750e+003,6.691219e-002
3.297678e+003,6.678002e-002
3.299606e+003,6.680069e-002
3.301535e+003,6.724365e-002
3.303463e+003,6.765652e-002
3.305392e+003,6.783908e-002
3.307320e+003,6.757881e-002
3.309249e+003,6.811962e-002
3.311177e+003,7.008563e-002
3.313106e+003,7.035340e-002
3.315034e+003,6.960845e-002
3.316963e+003,6.963817e-002
3.318891e+003,6.996662e-002
3.320820e+003,6.999539e-002
3.322748e+003,7.026571e-002
3.324677e+003,7.096006e-002
3.326605e+003,7.087607e-002
3.328533e+003,7.076246e-002
3.330462e+003,7.130993e-002
3.332390e+003,7.200873e-002
3.334319e+003,7.256949e-002
3.336247e+003,7.246804e-002
3.338176e+003,7.244447e-002
3.340104e+003,7.285710e-002
3.342033e+003,7.300376e-002
3.343961e+003,7.309008e-002
3.345890e+003,7.330531e-002
3.347818e+003,7.355960e-002
3.349747e+003,7.384748e-002
3.351675e+003,7.450242e-002
3.353604e+003,7.425638e-002
3.355532e+003,7.337761e-002
3.357460e+003,7.390314e-002
3.359389e+003,7.428869e-002
3.361317e+003,7.352530e-002
3.363246e+003,7.359890e-002
3.365174e+003,7.475817e-002
3.367103e+003,7.466777e-002
3.369031e+003,7.405259e-002
3.370960e+003,7.447540e-002
3.372888e+003,7.504905e-002
3.374817e+003,7.434059e-002
3.376745e+003,7.352535e-002
3.378674e+003,7.386076e-002
3.380602e+003,7.473475e-002
3.382531e+003,7.473912e-002
3.384459e+003,7.411923e-002
3.386387e+003,7.375629e-002
3.388316e+003,7.436839e-002
3.390244e+003,7.467116e-002
3.392173e+003,7.342555e-002
3.394101e+003,7.257662e-002
3.396030e+003,7.283755e-002
3.397958e+003,7.259306e-002
3.399887e+003,7.254369e-002
3.401815e+003,7.293873e-002
3.403744e+003,7.354093e-002
3.405672e+003,7.325306e-002
3.407601e+003,7.211183e-002
3.409529e+003,7.182053e-002
3.411458e+003,7.295500e-002
3.413386e+003,7.259502e-002
3.415314e+003,7.164203e-002
3.417243e+003,7.178938e-002
3.419171e+003,7.191519e-002
3.421100e+003,7.120862e-002
3.423028e+003,7.075146e-002
3.424957e+003,6.972717e-002
3.426885e+003,6.838378e-002
3.428814e+003,6.779136e-002
3.430742e+003,6.838521e-002
3.432671e+003,6.827158e-002
3.434599e+003,6.698521e-002
3.436528e+003,6.660979e-002
3.438456e+003,6.684745e-002
3.440385e+003,6.587184e-002
3.442313e+003,6.572553e-002
3.444241e+003,6.496880e-002
3.446170e+003,6.405669e-002
3.448098e+003,6.404083e-002
3.450027e+003,6.404939e-002
3.451955e+003,6.276936e-002
3.453884e+003,6.233912e-002
3.455812e+003,6.227303e-002
3.457741e+003,6.115427e-002
3.459669e+003,6.024472e-002
3.461598e+003,5.935173e-002
3.463526e+003,5.875011e-002
3.465455e+003,5.778119e-002
3.467383e+003,5.711971e-002
3.469312e+003,5.662576e-002
3.471240e+003,5.572051e-002
3.473168e+003,5.454015e-002
3.475097e+003,5.391652e-002
3.477025e+003,5.341877e-002
3.478954e+003,5.251864e-002
3.480882e+003,5.220174e-002
3.482811e+003,5.224509e-002
3.484739e+003,5.108060e-002
3.486668e+003,4.963906e-002
3.488596e+003,4.914726e-002
3.490525e+003,4.879807e-002
3.492453e+003,4.764285e-002
3.494382e+003,4.641246e-002
3.496310e+003,4.571214e-002
3.498239e+003,4.473750e-002
3.500167e+003,4.471399e-002
3.502095e+003,4.376171e-002
3.504024e+003,4.236431e-002
3.505952e+003,4.205826e-002
3.507881e+003,4.140866e-002
3.509809e+003,4.016314e-002
3.511738e+003,3.861048e-002
3.513666e+003,3.736923e-002
3.515595e+003,3.673568e-002
3.517523e+003,3.588359e-002
3.519452e+003,3.496183e-002
3.521380e+003,3.411421e-002
3.523309e+003,3.365288e-002
3.525237e+003,3.306746e-002
3.527166e+003,3.235662e-002
3.529094e+003,3.160053e-002
3.531022e+003,2.983451e-002
3.532951e+003,2.879684e-002
3.534879e+003,2.801448e-002
3.536808e+003,2.690422e-002
3.538736e+003,2.562640e-002
3.540665e+003,2.492966e-002
3.542593e+003,2.385477e-002
3.544522e+003,2.280955e-002
3.546450e+003,2.217355e-002
3.548379e+003,2.193256e-002
3.550307e+003,2.161624e-002
3.552236e+003,2.137299e-002
3.554164e+003,1.992606e-002
3.556093e+003,1.877509e-002
3.558021e+003,1.795079e-002
3.559949e+003,1.689404e-002
3.561878e+003,1.614939e-002
3.563806e+003,1.539973e-002
3.565735e+003,1.498793e-002
3.567663e+003,1.455459e-002
3.569592e+003,1.351711e-002
3.571520e+003,1.268545e-002
3.573449e+003,1.228630e-002
3.575377e+003,1.221698e-002
3.577306e+003,1.184278e-002
3.579234e+003,1.106971e-002
3.581163e+003,1.030552e-002
3.583091e+003,9.669567e-003
3.585020e+003,8.846825e-003
3.586948e+003,7.988074e-003
3.588876e+003,7.820947e-003
3.590805e+003,7.866021e-003
3.592733e+003,7.385901e-003
3.594662e+003,6.601715e-003
3.596590e+003,6.466363e-003
3.598519e+003,6.337978e-003
3.600447e+003,5.999075e-003
3.602376e+003,5.373217e-003
3.604304e+003,4.965549e-003
3.606233e+003,4.969538e-003
3.608161e+003,4.899865e-003
3.610090e+003,4.401187e-003
3.612018e+003,4.171332e-003
3.613947e+003,4.008777e-003
3.615875e+003,4.452603e-003
3.617803e+003,4.684382e-003
3.619732e+003,4.360354e-003
3.621660e+003,4.165812e-003
3.623589e+003,4.040347e-003
3.625517e+003,3.383908e-003
3.627446e+003,2.956618e-003
3.629374e+003,2.980205e-003
3.631303e+003,2.869223e-003
3.633231e+003,2.885433e-003
3.635160e+003,2.852380e-003
3.637088e+003,2.618843e-003
3.639017e+003,2.672314e-003
3.640945e+003,2.435542e-003
3.642874e+003,2.457234e-003
3.644802e+003,2.674881e-003
3.646730e+003,2.391728e-003
3.648659e+003,2.248921e-003
3.650587e+003,2.522450e-003
3.652516e+003,2.386430e-003
3.654444e+003,2.171724e-003
3.656373e+003,2.140523e-003
3.658301e+003,1.738473e-003
3.660230e+003,1.718713e-003
3.662158e+003,1.891461e-003
3.664087e+003,1.780557e-003
3.666015e+003,1.712924e-003
3.667944e+003,1.741766e-003
3.669872e+003,1.634792e-003
3.671801e+003,1.661101e-003
3.673729e+003,1.968541e-003
3.675657e+003,1.494063e-003
3.677586e+003,8.359807e-004
3.679514e+003,1.124300e-003
3.681443e+003,1.141974e-003
3.683371e+003,1.200281e-003
3.685300e+003,1.161143e-003
3.687228e+003,1.125463e-003
3.689157e+003,1.272287e-003
3.691085e+003,1.322469e-003
3.693014e+003,1.627309e-003
3.694942e+003,2.151412e-003
3.696871e+003,1.601634e-003
3.698799e+003,1.090916e-003
3.700728e+003,1.631034e-003
3.702656e+003,1.909898e-003
3.704584e+003,1.797825e-003
3.706513e+003,1.975464e-003
3.708441e+003,1.970039e-003
3.710370e+003,1.926804e-003
3.712298e+003,1.238791e-003
3.714227e+003,1.141841e-003
3.716155e+003,1.643406e-003
3.718084e+003,1.757968e-003
3.720012e+003,1.640147e-003
3.721941e+003,9.429574e-004
3.723869e+003,8.445458e-004
3.725798e+003,1.504503e-003
3.727726e+003,1.626876e-003
3.729655e+003,1.630668e-003
3.731583e+003,1.795063e-003
3.733511e+003,1.769412e-003
3.735440e+003,1.753543e-003
3.737368e+003,1.734880e-003
3.739297e+003,1.729058e-003
3.741225e+003,1.612908e-003
3.743154e+003,1.444925e-003
3.745082e+003,1.633229e-003
3.747011e+003,1.985483e-003
3.748939e+003,2.030821e-003
3.750868e+003,2.453269e-003
3.752796e+003,1.934859e-003
3.754725e+003,1.102475e-003
3.756653e+003,8.929188e-004
3.758582e+003,1.044580e-003
3.760510e+003,1.205431e-003
3.762438e+003,1.475278e-003
3.764367e+003,1.881644e-003
3.766295e+003,1.730788e-003
3.768224e+003,1.317384e-003
3.770152e+003,1.260091e-003
3.772081e+003,1.255771e-003
3.774009e+003,1.752012e-003
3.775938e+003,1.755073e-003
3.777866e+003,1.476475e-003
3.779795e+003,1.212807e-003
3.781723e+003,1.399714e-003
3.783652e+003,2.149847e-003
3.785580e+003,2.415483e-003
3.787509e+003,1.775101e-003
3.789437e+003,1.787078e-003
3.791365e+003,1.952798e-003
3.793294e+003,2.202861e-003
3.795222e+003,2.202295e-003
3.797151e+003,2.020535e-003
3.799079e+003,1.886968e-003
3.801008e+003,1.783186e-003
3.802936e+003,2.020768e-003
3.804865e+003,2.271869e-003
3.806793e+003,1.978027e-003
3.808722e+003,1.550788e-003
3.810650e+003,1.580550e-003
3.812579e+003,1.647031e-003
3.814507e+003,1.542275e-003
3.816436e+003,2.050296e-003
3.818364e+003,2.025129e-003
3.820292e+003,1.929201e-003
3.822221e+003,1.714687e-003
3.824149e+003,1.390274e-003
3.826078e+003,1.584008e-003
3.828006e+003,1.789773e-003
3.829935e+003,1.523522e-003
3.831863e+003,1.821115e-003
3.833792e+003,2.239129e-003
3.835720e+003,2.243592e-003
3.837649e+003,1.639681e-003
3.839577e+003,1.819452e-003
3.841506e+003,2.016540e-003
3.843434e+003,1.500347e-003
3.845363e+003,1.784117e-003
3.847291e+003,2.321334e-003
3.849219e+003,2.075098e-003
3.851148e+003,1.944011e-003
3.853076e+003,2.185045e-003
3.855005e+003,2.353948e-003
3.856933e+003,1.951267e-003
3.858862e+003,1.583044e-003
3.860790e+003,2.197033e-003
3.862719e+003,2.098304e-003
3.864647e+003,1.700616e-003
3.866576e+003,2.197666e-003
3.868504e+003,2.634210e-003
3.870433e+003,2.257348e-003
3.872361e+003,1.927137e-003
3.874290e+003,2.499288e-003
3.876218e+003,2.463965e-003
3.878146e+003,2.273235e-003
3.880075e+003,2.180016e-003
3.882003e+003,2.182214e-003
3.883932e+003,1.894922e-003
3.885860e+003,1.819851e-003
3.887789e+003,1.540513e-003
3.889717e+003,1.172871e-003
3.891646e+003,1.680027e-003
3.893574e+003,2.570877e-003
3.895503e+003,1.914024e-003
3.897431e+003,1.255805e-003
3.899360e+003,1.534627e-003
3.901288e+003,2.176953e-003
3.903217e+003,2.272669e-003
3.905145e+003,1.926771e-003
3.907073e+003,2.323133e-003
3.909002e+003,2.600942e-003
3.910930e+003,2.262610e-003
3.912859e+003,2.097205e-003
3.914787e+003,2.158338e-003
3.916716e+003,1.742631e-003
3.918644e+003,1.756603e-003
3.920573e+003,2.446771e-003
3.922501e+003,2.197200e-003
3.924430e+003,1.778894e-003
3.926358e+003,2.028757e-003
3.928287e+003,2.467697e-003
3.930215e+003,3.056177e-003
3.932144e+003,2.620043e-003
3.934072e+003,1.683685e-003
3.936000e+003,1.697722e-003
3.937929e+003,2.373903e-003
3.939857e+003,2.831635e-003
3.941786e+003,2.857883e-003
3.943714e+003,2.900510e-003
3.945643e+003,3.143477e-003
3.947571e+003,2.700886e-003
3.949500e+003,2.323200e-003
3.951428e+003,2.368240e-003
3.953357e+003,2.289257e-003
3.955285e+003,2.487458e-003
3.957214e+003,2.324666e-003
3.959142e+003,2.516584e-003
3.961071e+003,2.354447e-003
3.962999e+003,1.930465e-003
3.964927e+003,2.509719e-003
3.966856e+003,3.262574e-003
3.968784e+003,3.478388e-003
3.970713e+003,2.766206e-003
3.972641e+003,2.223110e-003
3.974570e+003,2.306411e-003
3.976498e+003,2.333860e-003
3.978427e+003,2.094275e-003
3.980355e+003,1.710496e-003
3.982284e+003,1.732684e-003
3.984212e+003,2.174155e-003
3.986141e+003,2.170426e-003
3.988069e+003,2.958987e-003
3.989998e+003,3.417937e-003
3.991926e+003,2.677982e-003
3.993854e+003,2.505720e-003
3.995783e+003,2.835003e-003
3.997711e+003,2.825665e-003
3.999640e+003,2.505520e-003
4.001568e+003,0.000000e+000
