3.991927e+002,0.000000e+000
4.011211e+002,0.000000e+000
4.030496e+002,0.000000e+000
4.049781e+002,0.000000e+000
4.069065e+002,0.000000e+000
4.088350e+002,0.000000e+000
4.107635e+002,0.000000e+000
4.126919e+002,0.000000e+000
4.146204e+002,0.000000e+000
4.165489e+002,0.000000e+000
4.184773e+002,0.000000e+000
4.204058e+002,0.000000e+000
4.223343e+002,0.000000e+000
4.242627e+002,0.000000e+000
4.261912e+002,0.000000e+000
4.281197e+002,0.000000e+000
4.300481e+002,0.000000e+000
4.319766e+002,0.000000e+000
4.339051e+002,0.000000e+000
4.358335e+002,0.000000e+000
4.377620e+002,0.000000e+000
4.396905e+002,0.000000e+000
4.416189e+002,0.000000e+000
4.435474e+002,0.000000e+000
4.454759e+002,0.000000e+000
4.474043e+002,0.000000e+000
4.493328e+002,0.000000e+000
4.512613e+002,0.000000e+000
4.531897e+002,0.000000e+000
4.551182e+002,0.000000e+000
4.570467e+002,0.000000e+000
4.589751e+002,0.000000e+000
4.609036e+002,0.000000e+000
4.628321e+002,0.000000e+000
4.647605e+002,0.000000e+000
4.666890e+002,0.000000e+000
4.686175e+002,0.000000e+000
4.705459e+002,0.000000e+000
4.724744e+002,0.000000e+000
4.744029e+002,0.000000e+000
4.763313e+002,0.000000e+000
4.782598e+002,0.000000e+000
4.801883e+002,0.000000e+000
4.821167e+002,0.000000e+000
4.840452e+002,0.000000e+000
4.859737e+002,0.000000e+000
4.879021e+002,0.000000e+000
4.898306e+002,0.000000e+000
4.917591e+002,0.000000e+000
4.936875e+002,0.000000e+000
4.956160e+002,0.000000e+000
4.975445e+002,0.000000e+000
4.994729e+002,0.000000e+000
5.014014e+002,0.000000e+000
5.033299e+002,0.000000e+000
5.052583e+002,0.000000e+000
5.071868e+002,0.000000e+000
5.091153e+002,0.000000e+000
5.110437e+002,0.000000e+000
5.129722e+002,0.000000e+000
5.149006e+002,0.000000e+000
5.168291e+002,0.000000e+000
5.187576e+002,0.000000e+000
5.206860e+002,0.000000e+000
5.226145e+002,0.000000e+000
5.245430e+002,0.000000e+000
5.264714e+002,0.000000e+000
5.283999e+002,0.000000e+000
5.303284e+002,0.000000e+000
5.322568e+002,0.000000e+000
5.341853e+002,0.000000e+000
5.361138e+002,0.000000e+000
5.380422e+002,0.000000e+000
5.399707e+002,0.000000e+000
5.418992e+002,0.000000e+000
5.438276e+002,0.000000e+000
5.457561e+002,0.000000e+000
5.476846e+002,0.000000e+000
5.496130e+002,0.000000e+000
5.515415e+002,0.000000e+000
5.534700e+002,0.000000e+000
5.553984e+002,0.000000e+000
5.573269e+002,0.000000e+000
5.592554e+002,0.000000e+000
5.611838e+002,0.000000e+000
5.631123e+002,0.000000e+000
5.650408e+002,0.000000e+000
5.669692e+002,0.000000e+000
5.688977e+002,0.000000e+000
5.708262e+002,0.000000e+000
5.727546e+002,0.000000e+000
5.746831e+002,0.000000e+000
5.766116e+002,0.000000e+000
5.785400e+002,0.000000e+000
5.804685e+002,0.000000e+000
5.823970e+002,0.000000e+000
5.843254e+002,0.000000e+000
5.862539e+002,0.000000e+000
5.881824e+002,0.000000e+000
5.901108e+002,0.000000e+000
5.920393e+002,0.000000e+000
5.939678e+002,0.000000e+000
5.958962e+002,0.000000e+000
5.978247e+002,0.000000e+000
5.997532e+002,0.000000e+000
6.016816e+002,0.000000e+000
6.036101e+002,0.000000e+000
6.055386e+002,0.000000e+000
6.074670e+002,0.000000e+000
6.093955e+002,0.000000e+000
6.113240e+002,0.000000e+000
6.132524e+002,0.000000e+000
6.151809e+002,0.000000e+000
6.171094e+002,0.000000e+000
6.190378e+002,0.000000e+000
6.209663e+002,0.000000e+000
6.228948e+002,0.000000e+000
6.248232e+002,0.000000e+000
6.267517e+002,0.000000e+000
6.286802e+002,0.000000e+000
6.306086e+002,0.000000e+000
6.325371e+002,0.000000e+000
6.344656e+002,0.000000e+000
6.363940e+002,0.000000e+000
6.383225e+002,0.000000e+000
6.402510e+002,0.000000e+000
6.421794e+002,0.000000e+000
6.441079e+002,0.000000e+000
6.460364e+002,0.000000e+000
6.479648e+002,0.000000e+000
6.498933e+002,2.793110e-001
6.518218e+002,2.781972e-001
6.537502e+002,2.748086e-001
6.556787e+002,2.723922e-001
6.576072e+002,2.713125e-001
6.595356e+002,2.704912e-001
6.614641e+002,2.695485e-001
6.633926e+002,2.687133e-001
6.653210e+002,2.663488e-001
6.672495e+002,2.637249e-001
6.691780e+002,2.613198e-001
6.711064e+002,2.587586e-001
6.730349e+002,2.569217e-001
6.749634e+002,2.564094e-001
6.768918e+002,2.564047e-001
6.788203e+002,2.541844e-001
6.807488e+002,2.517420e-001
6.826772e+002,2.505253e-001
6.846057e+002,2.500073e-001
6.865342e+002,2.484090e-001
6.884626e+002,2.482434e-001
6.903911e+002,2.480735e-001
6.923196e+002,2.457417e-001
6.942480e+002,2.429351e-001
6.961765e+002,2.417287e-001
6.981050e+002,2.405160e-001
7.000334e+002,2.391469e-001
7.019619e+002,2.382905e-001
7.038904e+002,2.375385e-001
7.058188e+002,2.361431e-001
7.077473e+002,2.351874e-001
7.096758e+002,2.332148e-001
7.116042e+002,2.314597e-001
7.135327e+002,2.305077e-001
7.154612e+002,2.296234e-001
7.173896e+002,2.274563e-001
7.193181e+002,2.249343e-001
7.212466e+002,2.238519e-001
7.231750e+002,2.235829e-001
7.251035e+002,2.230444e-001
7.270320e+002,2.227830e-001
7.289604e+002,2.222632e-001
7.308889e+002,2.213116e-001
7.328174e+002,2.205620e-001
7.347458e+002,2.201924e-001
7.366743e+002,2.184501e-001
7.386028e+002,2.180842e-001
7.405313e+002,2.174147e-001
7.424597e+002,2.164216e-001
7.443882e+002,2.155911e-001
7.463167e+002,2.155028e-001
7.482451e+002,2.156161e-001
7.501736e+002,2.150578e-001
7.521021e+002,2.129442e-001
7.540305e+002,2.108512e-001
7.559590e+002,2.102891e-001
7.578875e+002,2.084235e-001
7.598159e+002,2.064136e-001
7.617444e+002,2.050546e-001
7.636729e+002,2.029518e-001
7.656013e+002,2.010245e-001
7.675298e+002,1.994760e-001
7.694583e+002,1.985395e-001
7.713867e+002,1.969355e-001
7.733152e+002,1.952474e-001
7.752437e+002,1.934195e-001
7.771721e+002,1.919864e-001
7.791006e+002,1.914597e-001
7.810291e+002,1.899914e-001
7.829575e+002,1.880203e-001
7.848860e+002,1.865087e-001
7.868145e+002,1.855657e-001
7.887429e+002,1.842073e-001
7.906714e+002,1.818085e-001
7.925999e+002,1.786457e-001
7.945283e+002,1.755359e-001
7.964568e+002,1.733300e-001
7.983853e+002,1.720153e-001
8.003137e+002,1.706354e-001
8.022422e+002,1.704899e-001
8.041707e+002,1.719245e-001
8.060991e+002,1.711015e-001
8.080276e+002,1.707322e-001
8.099561e+002,1.711343e-001
8.118845e+002,1.708942e-001
8.138130e+002,1.700523e-001
8.157415e+002,1.700813e-001
8.176699e+002,1.692704e-001
8.195984e+002,1.675540e-001
8.215269e+002,1.656036e-001
8.234553e+002,1.640263e-001
8.253838e+002,1.628601e-001
8.273123e+002,1.612571e-001
8.292407e+002,1.592412e-001
8.311692e+002,1.576339e-001
8.330977e+002,1.560154e-001
8.350261e+002,1.543281e-001
8.369546e+002,1.521475e-001
8.388831e+002,1.505998e-001
8.408115e+002,1.503647e-001
8.427400e+002,1.498664e-001
8.446685e+002,1.490082e-001
8.465969e+002,1.492342e-001
8.485254e+002,1.495831e-001
8.504539e+002,1.496177e-001
8.523823e+002,1.501579e-001
8.543108e+002,1.498672e-001
8.562393e+002,1.486508e-001
8.581677e+002,1.475321e-001
8.600962e+002,1.461527e-001
8.620247e+002,1.445644e-001
8.639531e+002,1.429812e-001
8.658816e+002,1.407494e-001
8.678101e+002,1.387578e-001
8.697385e+002,1.367195e-001
8.716670e+002,1.346704e-001
8.735955e+002,1.336665e-001
8.755239e+002,1.333210e-001
8.774524e+002,1.318727e-001
8.793809e+002,1.308222e-001
8.813093e+002,1.308707e-001
8.832378e+002,1.310419e-001
8.851663e+002,1.311123e-001
8.870947e+002,1.313091e-001
8.890232e+002,1.318995e-001
8.909517e+002,1.314604e-001
8.928801e+002,1.302952e-001
8.948086e+002,1.290762e-001
8.967371e+002,1.279555e-001
8.986655e+002,1.271706e-001
9.005940e+002,1.258570e-001
9.025225e+002,1.248491e-001
9.044509e+002,1.247935e-001
9.063794e+002,1.249376e-001
9.083079e+002,1.248808e-001
9.102363e+002,1.257725e-001
9.121648e+002,1.267633e-001
9.140933e+002,1.272046e-001
9.160217e+002,1.275690e-001
9.179502e+002,1.277814e-001
9.198787e+002,1.280791e-001
9.218071e+002,1.281600e-001
9.237356e+002,1.279040e-001
9.256641e+002,1.279524e-001
9.275925e+002,1.276861e-001
9.295210e+002,1.269340e-001
9.314495e+002,1.257689e-001
9.333779e+002,1.249744e-001
9.353064e+002,1.254233e-001
9.372349e+002,1.257702e-001
9.391633e+002,1.256191e-001
9.410918e+002,1.255788e-001
9.430203e+002,1.255534e-001
9.449487e+002,1.269067e-001
9.468772e+002,1.280802e-001
9.488057e+002,1.283439e-001
9.507341e+002,1.286306e-001
9.526626e+002,1.293666e-001
9.545911e+002,1.300893e-001
9.565195e+002,1.308461e-001
9.584480e+002,1.322307e-001
9.603765e+002,1.334576e-001
9.623049e+002,1.339868e-001
9.642334e+002,1.347827e-001
9.661619e+002,1.361033e-001
9.680903e+002,1.373113e-001
9.700188e+002,1.388468e-001
9.719473e+002,1.399567e-001
9.738757e+002,1.408170e-001
9.758042e+002,1.419614e-001
9.777327e+002,1.427842e-001
9.796611e+002,1.433434e-001
9.815896e+002,1.446064e-001
9.835181e+002,1.468467e-001
9.854465e+002,1.490553e-001
9.873750e+002,1.509711e-001
9.893035e+002,1.529707e-001
9.912319e+002,1.549872e-001
9.931604e+002,1.574123e-001
9.950889e+002,1.594935e-001
9.970173e+002,1.614094e-001
9.989458e+002,1.636618e-001
1.000874e+003,1.665139e-001
1.002803e+003,1.702844e-001
1.004731e+003,1.760076e-001
1.006660e+003,1.830038e-001
1.008588e+003,1.903646e-001
1.010517e+003,1.975073e-001
1.012445e+003,2.044383e-001
1.014374e+003,2.101825e-001
1.016302e+003,2.144166e-001
1.018230e+003,2.173190e-001
1.020159e+003,2.192372e-001
1.022087e+003,2.211049e-001
1.024016e+003,2.220841e-001
1.025944e+003,2.223486e-001
1.027873e+003,2.220751e-001
1.029801e+003,2.210897e-001
1.031730e+003,2.179277e-001
1.033658e+003,2.128828e-001
1.035587e+003,2.073367e-001
1.037515e+003,2.003895e-001
1.039444e+003,1.936667e-001
1.041372e+003,1.883510e-001
1.043301e+003,1.850765e-001
1.045229e+003,1.832186e-001
1.047157e+003,1.817654e-001
1.049086e+003,1.810510e-001
1.051014e+003,1.797015e-001
1.052943e+003,1.768852e-001
1.054871e+003,1.744505e-001
1.056800e+003,1.721934e-001
1.058728e+003,1.696948e-001
1.060657e+003,1.674662e-001
1.062585e+003,1.660459e-001
1.064514e+003,1.648177e-001
1.066442e+003,1.640970e-001
1.068371e+003,1.645993e-001
1.070299e+003,1.648188e-001
1.072228e+003,1.655914e-001
1.074156e+003,1.665073e-001
1.076084e+003,1.672784e-001
1.078013e+003,1.679747e-001
1.079941e+003,1.680671e-001
1.081870e+003,1.674962e-001
1.083798e+003,1.657048e-001
1.085727e+003,1.648686e-001
1.087655e+003,1.644279e-001
1.089584e+003,1.633091e-001
1.091512e+003,1.624880e-001
1.093441e+003,1.615982e-001
1.095369e+003,1.596401e-001
1.097298e+003,1.589519e-001
1.099226e+003,1.575437e-001
1.101155e+003,1.558268e-001
1.103083e+003,1.541138e-001
1.105011e+003,1.533631e-001
1.106940e+003,1.542896e-001
1.108868e+003,1.554686e-001
1.110797e+003,1.563305e-001
1.112725e+003,1.565695e-001
1.114654e+003,1.573870e-001
1.116582e+003,1.576616e-001
1.118511e+003,1.578022e-001
1.120439e+003,1.588411e-001
1.122368e+003,1.590752e-001
1.124296e+003,1.574590e-001
1.126225e+003,1.551122e-001
1.128153e+003,1.515804e-001
1.130082e+003,1.478155e-001
1.132010e+003,1.448386e-001
1.133938e+003,1.426559e-001
1.135867e+003,1.412226e-001
1.137795e+003,1.402577e-001
1.139724e+003,1.397789e-001
1.141652e+003,1.388232e-001
1.143581e+003,1.382824e-001
1.145509e+003,1.387357e-001
1.147438e+003,1.396597e-001
1.149366e+003,1.412310e-001
1.151295e+003,1.427578e-001
1.153223e+003,1.428525e-001
1.155152e+003,1.416723e-001
1.157080e+003,1.401096e-001
1.159009e+003,1.379384e-001
1.160937e+003,1.358642e-001
1.162865e+003,1.347895e-001
1.164794e+003,1.346416e-001
1.166722e+003,1.343933e-001
1.168651e+003,1.342841e-001
1.170579e+003,1.350197e-001
1.172508e+003,1.360197e-001
1.174436e+003,1.371950e-001
1.176365e+003,1.386534e-001
1.178293e+003,1.404599e-001
1.180222e+003,1.424170e-001
1.182150e+003,1.438910e-001
1.184079e+003,1.459658e-001
1.186007e+003,1.484562e-001
1.187936e+003,1.509534e-001
1.189864e+003,1.531922e-001
1.191792e+003,1.554442e-001
1.193721e+003,1.576970e-001
1.195649e+003,1.597953e-001
1.197578e+003,1.616821e-001
1.199506e+003,1.637440e-001
1.201435e+003,1.660422e-001
1.203363e+003,1.680157e-001
1.205292e+003,1.701352e-001
1.207220e+003,1.718131e-001
1.209149e+003,1.726750e-001
1.211077e+003,1.734924e-001
1.213006e+003,1.738402e-001
1.214934e+003,1.734245e-001
1.216863e+003,1.735989e-001
1.218791e+003,1.735201e-001
1.220719e+003,1.730986e-001
1.222648e+003,1.722088e-001
1.224576e+003,1.715940e-001
1.226505e+003,1.713355e-001
1.228433e+003,1.710304e-001
1.230362e+003,1.707946e-001
1.232290e+003,1.711397e-001
1.234219e+003,1.717338e-001
1.236147e+003,1.715422e-001
1.238076e+003,1.707520e-001
1.240004e+003,1.700354e-001
1.241933e+003,1.687295e-001
1.243861e+003,1.676086e-001
1.245790e+003,1.669179e-001
1.247718e+003,1.661511e-001
1.249646e+003,1.659919e-001
1.251575e+003,1.659238e-001
1.253503e+003,1.657135e-001
1.255432e+003,1.659794e-001
1.257360e+003,1.664934e-001
1.259289e+003,1.667629e-001
1.261217e+003,1.667386e-001
1.263146e+003,1.660700e-001
1.265074e+003,1.661908e-001
1.267003e+003,1.676555e-001
1.268931e+003,1.688306e-001
1.270860e+003,1.689633e-001
1.272788e+003,1.681339e-001
1.274717e+003,1.662378e-001
1.276645e+003,1.630428e-001
1.278573e+003,1.592329e-001
1.280502e+003,1.550321e-001
1.282430e+003,1.507691e-001
1.284359e+003,1.465948e-001
1.286287e+003,1.425162e-001
1.288216e+003,1.386735e-001
1.290144e+003,1.347043e-001
1.292073e+003,1.306613e-001
1.294001e+003,1.268960e-001
1.295930e+003,1.232683e-001
1.297858e+003,1.201252e-001
1.299787e+003,1.173540e-001
1.301715e+003,1.148133e-001
1.303644e+003,1.122444e-001
1.305572e+003,1.098421e-001
1.307500e+003,1.078210e-001
1.309429e+003,1.062943e-001
1.311357e+003,1.051281e-001
1.313286e+003,1.042300e-001
1.315214e+003,1.030700e-001
1.317143e+003,1.018493e-001
1.319071e+003,1.011578e-001
1.321000e+003,1.006212e-001
1.322928e+003,1.002241e-001
1.324857e+003,9.986246e-002
1.326785e+003,9.940433e-002
1.328714e+003,9.924378e-002
1.330642e+003,9.916420e-002
1.332571e+003,9.896038e-002
1.334499e+003,9.868527e-002
1.336427e+003,9.831589e-002
1.338356e+003,9.783290e-002
1.340284e+003,9.840091e-002
1.342213e+003,9.931798e-002
1.344141e+003,1.002153e-001
1.346070e+003,1.011945e-001
1.347998e+003,1.023591e-001
1.349927e+003,1.041247e-001
1.351855e+003,1.060514e-001
1.353784e+003,1.076190e-001
1.355712e+003,1.092923e-001
1.357641e+003,1.109271e-001
1.359569e+003,1.120452e-001
1.361498e+003,1.123409e-001
1.363426e+003,1.127726e-001
1.365354e+003,1.132575e-001
1.367283e+003,1.135125e-001
1.369211e+003,1.134529e-001
1.371140e+003,1.130654e-001
1.373068e+003,1.124252e-001
1.374997e+003,1.118372e-001
1.376925e+003,1.106919e-001
1.378854e+003,1.094645e-001
1.380782e+003,1.080021e-001
1.382711e+003,1.058687e-001
1.384639e+003,1.038988e-001
1.386568e+003,1.020388e-001
1.388496e+003,1.004854e-001
1.390425e+003,9.888548e-002
1.392353e+003,9.723672e-002
1.394281e+003,9.571283e-002
1.396210e+003,9.487093e-002
1.398138e+003,9.433284e-002
1.400067e+003,9.451994e-002
1.401995e+003,9.490915e-002
1.403924e+003,9.477325e-002
1.405852e+003,9.449472e-002
1.407781e+003,9.475210e-002
1.409709e+003,9.480531e-002
1.411638e+003,9.489806e-002
1.413566e+003,9.541766e-002
1.415495e+003,9.610126e-002
1.417423e+003,9.650965e-002
1.419352e+003,9.772915e-002
1.421280e+003,9.999733e-002
1.423208e+003,1.023302e-001
1.425137e+003,1.045580e-001
1.427065e+003,1.068196e-001
1.428994e+003,1.084138e-001
1.430922e+003,1.094265e-001
1.432851e+003,1.097041e-001
1.434779e+003,1.093498e-001
1.436708e+003,1.088590e-001
1.438636e+003,1.092420e-001
1.440565e+003,1.092567e-001
1.442493e+003,1.094565e-001
1.444422e+003,1.104733e-001
1.446350e+003,1.115753e-001
1.448279e+003,1.123682e-001
1.450207e+003,1.129219e-001
1.452135e+003,1.122039e-001
1.454064e+003,1.105228e-001
1.455992e+003,1.085286e-001
1.457921e+003,1.076614e-001
1.459849e+003,1.064384e-001
1.461778e+003,1.055539e-001
1.463706e+003,1.041436e-001
1.465635e+003,1.008708e-001
1.467563e+003,9.551198e-002
1.469492e+003,8.923990e-002
1.471420e+003,8.331189e-002
1.473349e+003,7.841682e-002
1.475277e+003,7.385478e-002
1.477206e+003,7.077517e-002
1.479134e+003,6.879939e-002
1.481063e+003,6.722137e-002
1.482991e+003,6.615984e-002
1.484919e+003,6.528804e-002
1.486848e+003,6.518674e-002
1.488776e+003,6.558643e-002
1.490705e+003,6.636956e-002
1.492633e+003,6.747086e-002
1.494562e+003,6.906109e-002
1.496490e+003,7.166822e-002
1.498419e+003,7.489343e-002
1.500347e+003,7.869650e-002
1.502276e+003,8.287939e-002
1.504204e+003,8.729330e-002
1.506133e+003,9.210693e-002
1.508061e+003,9.831160e-002
1.509990e+003,1.064650e-001
1.511918e+003,1.148159e-001
1.513846e+003,1.193733e-001
1.515775e+003,1.171957e-001
1.517703e+003,1.086151e-001
1.519632e+003,9.662532e-002
1.521560e+003,8.505674e-002
1.523489e+003,7.454443e-002
1.525417e+003,6.591955e-002
1.527346e+003,5.855643e-002
1.529274e+003,5.250268e-002
1.531203e+003,4.754100e-002
1.533131e+003,4.438622e-002
1.535060e+003,4.213756e-002
1.536988e+003,4.104185e-002
1.538917e+003,4.139481e-002
1.540845e+003,4.205432e-002
1.542773e+003,4.152269e-002
1.544702e+003,4.155532e-002
1.546630e+003,4.155062e-002
1.548559e+003,4.183656e-002
1.550487e+003,4.246061e-002
1.552416e+003,4.408333e-002
1.554344e+003,4.582015e-002
1.556273e+003,4.742641e-002
1.558201e+003,4.876615e-002
1.560130e+003,5.002682e-002
1.562058e+003,5.158269e-002
1.563987e+003,5.333102e-002
1.565915e+003,5.466872e-002
1.567844e+003,5.615725e-002
1.569772e+003,5.820504e-002
1.571700e+003,6.012902e-002
1.573629e+003,6.289580e-002
1.575557e+003,6.612569e-002
1.577486e+003,6.872017e-002
1.579414e+003,7.162961e-002
1.581343e+003,7.477947e-002
1.583271e+003,7.834769e-002
1.585200e+003,8.184673e-002
1.587128e+003,8.501244e-002
1.589057e+003,8.803549e-002
1.590985e+003,9.147097e-002
1.592914e+003,9.486227e-002
1.594842e+003,9.800689e-002
1.596771e+003,1.008827e-001
1.598699e+003,1.030938e-001
1.600627e+003,1.049593e-001
1.602556e+003,1.069707e-001
1.604484e+003,1.079674e-001
1.606413e+003,1.082724e-001
1.608341e+003,1.088215e-001
1.610270e+003,1.091788e-001
1.612198e+003,1.084029e-001
1.614127e+003,1.075926e-001
1.616055e+003,1.071883e-001
1.617984e+003,1.050794e-001
1.619912e+003,1.032223e-001
1.621841e+003,1.026118e-001
1.623769e+003,1.022892e-001
1.625698e+003,1.016027e-001
1.627626e+003,1.015172e-001
1.629554e+003,1.014172e-001
1.631483e+003,1.012664e-001
1.633411e+003,1.015936e-001
1.635340e+003,1.023326e-001
1.637268e+003,1.027261e-001
1.639197e+003,1.024300e-001
1.641125e+003,1.019757e-001
1.643054e+003,1.019423e-001
1.644982e+003,1.019120e-001
1.646911e+003,1.018266e-001
1.648839e+003,1.013535e-001
1.650768e+003,1.014381e-001
1.652696e+003,1.012647e-001
1.654625e+003,1.005901e-001
1.656553e+003,9.987184e-002
1.658481e+003,9.900448e-002
1.660410e+003,9.847277e-002
1.662338e+003,9.837872e-002
1.664267e+003,9.805759e-002
1.666195e+003,9.735221e-002
1.668124e+003,9.693900e-002
1.670052e+003,9.709581e-002
1.671981e+003,9.688956e-002
1.673909e+003,9.748726e-002
1.675838e+003,9.832898e-002
1.677766e+003,9.902605e-002
1.679695e+003,9.984653e-002
1.681623e+003,1.007506e-001
1.683552e+003,1.023540e-001
1.685480e+003,1.046492e-001
1.687408e+003,1.061839e-001
1.689337e+003,1.077521e-001
1.691265e+003,1.093923e-001
1.693194e+003,1.111610e-001
1.695122e+003,1.125973e-001
1.697051e+003,1.143437e-001
1.698979e+003,1.153421e-001
1.700908e+003,1.149273e-001
1.702836e+003,1.147626e-001
1.704765e+003,1.141613e-001
1.706693e+003,1.131885e-001
1.708622e+003,1.116837e-001
1.710550e+003,1.100937e-001
1.712479e+003,1.082165e-001
1.714407e+003,1.064253e-001
1.716335e+003,1.047912e-001
1.718264e+003,1.021628e-001
1.720192e+003,9.964663e-002
1.722121e+003,9.722971e-002
1.724049e+003,9.414917e-002
1.725978e+003,9.098438e-002
1.727906e+003,8.763737e-002
1.729835e+003,8.416378e-002
1.731763e+003,8.134060e-002
1.733692e+003,7.835559e-002
1.735620e+003,7.482623e-002
1.737549e+003,7.194780e-002
1.739477e+003,6.869785e-002
1.741406e+003,6.498878e-002
1.743334e+003,6.136083e-002
1.745262e+003,5.854505e-002
1.747191e+003,5.578150e-002
1.749119e+003,5.292066e-002
1.751048e+003,5.072281e-002
1.752976e+003,4.899624e-002
1.754905e+003,4.739637e-002
1.756833e+003,4.560422e-002
1.758762e+003,4.395748e-002
1.760690e+003,4.265942e-002
1.762619e+003,4.088365e-002
1.764547e+003,3.906728e-002
1.766476e+003,3.719535e-002
1.768404e+003,3.536919e-002
1.770333e+003,3.416382e-002
1.772261e+003,3.351188e-002
1.774189e+003,3.185016e-002
1.776118e+003,2.993151e-002
1.778046e+003,2.809567e-002
1.779975e+003,2.675225e-002
1.781903e+003,2.540253e-002
1.783832e+003,2.421294e-002
1.785760e+003,2.300421e-002
1.787689e+003,2.193479e-002
1.789617e+003,2.082355e-002
1.791546e+003,2.038608e-002
1.793474e+003,2.003164e-002
1.795403e+003,1.906696e-002
1.797331e+003,1.797555e-002
1.799260e+003,1.730365e-002
1.801188e+003,1.643392e-002
1.803116e+003,1.598311e-002
1.805045e+003,1.582371e-002
1.806973e+003,1.547715e-002
1.808902e+003,1.502703e-002
1.810830e+003,1.459232e-002
1.812759e+003,1.423294e-002
1.814687e+003,1.383429e-002
1.816616e+003,1.353642e-002
1.818544e+003,1.358920e-002
1.820473e+003,1.341686e-002
1.822401e+003,1.303937e-002
1.824330e+003,1.277385e-002
1.826258e+003,1.291320e-002
1.828187e+003,1.311542e-002
1.830115e+003,1.317433e-002
1.832043e+003,1.319308e-002
1.833972e+003,1.309425e-002
1.835900e+003,1.289647e-002
1.837829e+003,1.289879e-002
1.839757e+003,1.263956e-002
1.841686e+003,1.249133e-002
1.843614e+003,1.261691e-002
1.845543e+003,1.295003e-002
1.847471e+003,1.297857e-002
1.849400e+003,1.303524e-002
1.851328e+003,1.304402e-002
1.853257e+003,1.293515e-002
1.855185e+003,1.291709e-002
1.857114e+003,1.306464e-002
1.859042e+003,1.316142e-002
1.860970e+003,1.314339e-002
1.862899e+003,1.298226e-002
1.864827e+003,1.270390e-002
1.866756e+003,1.271619e-002
1.868684e+003,1.291388e-002
1.870613e+003,1.285852e-002
1.872541e+003,1.283022e-002
1.874470e+003,1.293969e-002
1.876398e+003,1.307226e-002
1.878327e+003,1.302077e-002
1.880255e+003,1.292675e-002
1.882183e+003,1.290579e-002
1.884112e+003,1.291900e-002
1.886040e+003,1.297611e-002
1.887969e+003,1.296041e-002
1.889897e+003,1.293569e-002
1.891826e+003,1.302333e-002
1.893754e+003,1.316795e-002
1.895683e+003,1.308919e-002
1.897611e+003,1.292688e-002
1.899540e+003,1.303517e-002
1.901468e+003,1.323657e-002
1.903397e+003,1.316296e-002
1.905325e+003,1.293207e-002
1.907254e+003,1.288299e-002
1.909182e+003,1.301807e-002
1.911110e+003,1.310026e-002
1.913039e+003,1.283292e-002
1.914967e+003,1.245328e-002
1.916896e+003,1.254512e-002
1.918824e+003,1.292292e-002
1.920753e+003,1.303278e-002
1.922681e+003,1.306662e-002
1.924610e+003,1.313707e-002
1.926538e+003,1.318373e-002
1.928467e+003,1.314708e-002
1.930395e+003,1.304921e-002
1.932324e+003,1.315637e-002
1.934252e+003,1.335679e-002
1.936181e+003,1.322830e-002
1.938109e+003,1.320309e-002
1.940037e+003,1.324702e-002
1.941966e+003,1.310576e-002
1.943894e+003,1.324692e-002
1.945823e+003,1.352740e-002
1.947751e+003,1.348381e-002
1.949680e+003,1.352405e-002
1.951608e+003,1.340976e-002
1.953537e+003,1.335645e-002
1.955465e+003,1.342694e-002
1.957394e+003,1.347028e-002
1.959322e+003,1.349321e-002
1.961251e+003,1.365765e-002
1.963179e+003,1.366709e-002
1.965108e+003,1.363054e-002
1.967036e+003,1.372289e-002
1.968964e+003,1.386350e-002
1.970893e+003,1.380381e-002
1.972821e+003,1.384161e-002
1.974750e+003,1.375364e-002
1.976678e+003,1.368135e-002
1.978607e+003,1.384657e-002
1.980535e+003,1.388916e-002
1.982464e+003,1.391434e-002
1.984392e+003,1.410399e-002
1.986321e+003,1.408311e-002
1.988249e+003,1.408102e-002
1.990178e+003,1.387763e-002
1.992106e+003,1.382481e-002
1.994035e+003,1.395673e-002
1.995963e+003,1.413048e-002
1.997891e+003,1.411700e-002
1.999820e+003,1.418087e-002
2.001748e+003,1.417522e-002
2.003677e+003,1.425715e-002
2.005605e+003,1.447216e-002
2.007534e+003,1.444421e-002
2.009462e+003,1.439211e-002
2.011391e+003,1.436355e-002
2.013319e+003,1.431848e-002
2.015248e+003,1.440448e-002
2.017176e+003,1.435540e-002
2.019105e+003,1.451714e-002
2.021033e+003,1.465914e-002
2.022962e+003,1.458731e-002
2.024890e+003,1.473523e-002
2.026818e+003,1.501866e-002
2.028747e+003,1.499054e-002
2.030675e+003,1.509797e-002
2.032604e+003,1.508764e-002
2.034532e+003,1.500460e-002
2.036461e+003,1.494746e-002
2.038389e+003,1.506240e-002
2.040318e+003,1.513214e-002
2.042246e+003,1.518814e-002
2.044175e+003,1.503471e-002
2.046103e+003,1.510442e-002
2.048032e+003,1.527997e-002
2.049960e+003,1.537247e-002
2.051889e+003,1.515338e-002
2.053817e+003,1.495453e-002
2.055746e+003,1.498800e-002
2.057674e+003,1.507821e-002
2.059603e+003,1.507903e-002
2.061531e+003,1.522993e-002
2.063459e+003,1.513705e-002
2.065388e+003,1.505279e-002
2.067316e+003,1.520999e-002
2.069245e+003,1.519153e-002
2.071173e+003,1.506415e-002
2.073102e+003,1.493254e-002
2.075030e+003,1.493559e-002
2.076959e+003,1.485817e-002
2.078887e+003,1.472814e-002
2.080816e+003,1.485930e-002
2.082744e+003,1.498203e-002
2.084673e+003,1.512017e-002
2.086601e+003,1.498416e-002
2.088530e+003,1.492764e-002
2.090458e+003,1.492901e-002
2.092386e+003,1.487884e-002
2.094315e+003,1.481637e-002
2.096243e+003,1.460208e-002
2.098172e+003,1.448398e-002
2.100100e+003,1.470596e-002
2.102029e+003,1.473784e-002
2.103957e+003,1.460517e-002
2.105886e+003,1.466997e-002
2.107814e+003,1.477421e-002
2.109743e+003,1.471412e-002
2.111671e+003,1.464139e-002
2.113600e+003,1.466421e-002
2.115528e+003,1.475179e-002
2.117457e+003,1.464862e-002
2.119385e+003,1.474788e-002
2.121313e+003,1.463793e-002
2.123242e+003,1.448580e-002
2.125170e+003,1.460363e-002
2.127099e+003,1.463748e-002
2.129027e+003,1.459797e-002
2.130956e+003,1.463351e-002
2.132884e+003,1.445079e-002
2.134813e+003,1.477428e-002
2.136741e+003,1.504243e-002
2.138670e+003,1.475518e-002
2.140598e+003,1.448045e-002
2.142527e+003,1.448604e-002
2.144455e+003,1.472687e-002
2.146384e+003,1.476228e-002
2.148312e+003,1.460548e-002
2.150240e+003,1.444239e-002
2.152169e+003,1.420333e-002
2.154097e+003,1.406603e-002
2.156026e+003,1.412131e-002
2.157954e+003,1.443887e-002
2.159883e+003,1.459218e-002
2.161811e+003,1.447966e-002
2.163740e+003,1.443479e-002
2.165668e+003,1.438793e-002
2.167597e+003,1.430067e-002
2.169525e+003,1.424452e-002
2.171454e+003,1.422284e-002
2.173382e+003,1.424743e-002
2.175311e+003,1.406880e-002
2.177239e+003,1.389597e-002
2.179167e+003,1.388324e-002
2.181096e+003,1.398677e-002
2.183024e+003,1.403639e-002
2.184953e+003,1.399444e-002
2.186881e+003,1.389610e-002
2.188810e+003,1.392720e-002
2.190738e+003,1.403472e-002
2.192667e+003,1.382194e-002
2.194595e+003,1.362886e-002
2.196524e+003,1.378934e-002
2.198452e+003,1.393117e-002
2.200381e+003,1.391496e-002
2.202309e+003,1.395916e-002
2.204238e+003,1.387202e-002
2.206166e+003,1.369242e-002
2.208094e+003,1.365570e-002
2.210023e+003,1.374461e-002
2.211951e+003,1.385652e-002
2.213880e+003,1.383446e-002
2.215808e+003,1.379239e-002
2.217737e+003,1.370815e-002
2.219665e+003,1.358000e-002
2.221594e+003,1.354216e-002
2.223522e+003,1.356462e-002
2.225451e+003,1.362243e-002
2.227379e+003,1.371787e-002
2.229308e+003,1.375507e-002
2.231236e+003,1.363279e-002
2.233165e+003,1.350548e-002
2.235093e+003,1.353297e-002
2.237021e+003,1.361430e-002
2.238950e+003,1.359238e-002
2.240878e+003,1.348446e-002
2.242807e+003,1.333400e-002
2.244735e+003,1.328706e-002
2.246664e+003,1.333984e-002
2.248592e+003,1.331411e-002
2.250521e+003,1.343645e-002
2.252449e+003,1.345794e-002
2.254378e+003,1.329321e-002
2.256306e+003,1.329905e-002
2.258235e+003,1.339058e-002
2.260163e+003,1.332601e-002
2.262092e+003,1.331196e-002
2.264020e+003,1.320084e-002
2.265948e+003,1.308697e-002
2.267877e+003,1.315582e-002
2.269805e+003,1.319428e-002
2.271734e+003,1.317836e-002
2.273662e+003,1.319626e-002
2.275591e+003,1.309790e-002
2.277519e+003,1.285449e-002
2.279448e+003,1.289098e-002
2.281376e+003,1.313533e-002
2.283305e+003,1.312444e-002
2.285233e+003,1.313782e-002
2.287162e+003,1.314110e-002
2.289090e+003,1.308339e-002
2.291019e+003,1.314417e-002
2.292947e+003,1.312133e-002
2.294875e+003,1.320214e-002
2.296804e+003,1.338706e-002
2.298732e+003,1.334018e-002
2.300661e+003,1.294068e-002
2.302589e+003,1.267794e-002
2.304518e+003,1.281200e-002
2.306446e+003,1.291716e-002
2.308375e+003,1.284265e-002
2.310303e+003,1.302729e-002
2.312232e+003,1.299673e-002
2.314160e+003,1.294644e-002
2.316089e+003,1.272475e-002
2.318017e+003,1.261118e-002
2.319946e+003,1.259331e-002
2.321874e+003,1.252465e-002
2.323802e+003,1.266423e-002
2.325731e+003,1.285855e-002
2.327659e+003,1.278917e-002
2.329588e+003,1.276010e-002
2.331516e+003,1.268882e-002
2.333445e+003,1.259072e-002
2.335373e+003,1.270704e-002
2.337302e+003,1.282630e-002
2.339230e+003,1.277194e-002
2.341159e+003,1.274355e-002
2.343087e+003,1.271950e-002
2.345016e+003,1.284941e-002
2.346944e+003,1.275993e-002
2.348873e+003,1.274338e-002
2.350801e+003,1.290907e-002
2.352729e+003,1.286715e-002
2.354658e+003,1.289152e-002
2.356586e+003,1.319018e-002
2.358515e+003,1.315627e-002
2.360443e+003,1.301691e-002
2.362372e+003,1.305624e-002
2.364300e+003,1.322628e-002
2.366229e+003,1.332317e-002
2.368157e+003,1.340203e-002
2.370086e+003,1.324804e-002
2.372014e+003,1.324753e-002
2.373943e+003,1.354435e-002
2.375871e+003,1.366527e-002
2.377800e+003,1.345056e-002
2.379728e+003,1.343293e-002
2.381656e+003,1.344707e-002
2.383585e+003,1.345740e-002
2.385513e+003,1.352336e-002
2.387442e+003,1.349379e-002
2.389370e+003,1.360346e-002
2.391299e+003,1.383060e-002
2.393227e+003,1.391667e-002
2.395156e+003,1.396546e-002
2.397084e+003,1.386073e-002
2.399013e+003,1.365960e-002
2.400941e+003,1.388430e-002
2.402870e+003,1.394435e-002
2.404798e+003,1.403845e-002
2.406727e+003,1.441386e-002
2.408655e+003,1.426602e-002
2.410583e+003,1.400255e-002
2.412512e+003,1.400994e-002
2.414440e+003,1.406028e-002
2.416369e+003,1.414424e-002
2.418297e+003,1.423003e-002
2.420226e+003,1.424849e-002
2.422154e+003,1.438982e-002
2.424083e+003,1.445336e-002
2.426011e+003,1.453571e-002
2.427940e+003,1.461692e-002
2.429868e+003,1.465098e-002
2.431797e+003,1.472385e-002
2.433725e+003,1.466243e-002
2.435654e+003,1.489955e-002
2.437582e+003,1.479728e-002
2.439510e+003,1.466013e-002
2.441439e+003,1.463902e-002
2.443367e+003,1.461000e-002
2.445296e+003,1.459715e-002
2.447224e+003,1.479213e-002
2.449153e+003,1.508689e-002
2.451081e+003,1.497006e-002
2.453010e+003,1.493549e-002
2.454938e+003,1.504747e-002
2.456867e+003,1.527564e-002
2.458795e+003,1.530938e-002
2.460724e+003,1.533286e-002
2.462652e+003,1.548958e-002
2.464581e+003,1.547622e-002
2.466509e+003,1.569215e-002
2.468438e+003,1.575220e-002
2.470366e+003,1.570469e-002
2.472294e+003,1.570039e-002
2.474223e+003,1.557632e-002
2.476151e+003,1.542026e-002
2.478080e+003,1.553168e-002
2.480008e+003,1.579993e-002
2.481937e+003,1.579553e-002
2.483865e+003,1.573317e-002
2.485794e+003,1.583271e-002
2.487722e+003,1.600226e-002
2.489651e+003,1.604499e-002
2.491579e+003,1.629347e-002
2.493508e+003,1.645487e-002
2.495436e+003,1.655592e-002
2.497365e+003,1.649531e-002
2.499293e+003,1.646730e-002
2.501221e+003,1.664594e-002
2.503150e+003,1.669614e-002
2.505078e+003,1.663407e-002
2.507007e+003,1.666502e-002
2.508935e+003,1.651242e-002
2.510864e+003,1.650557e-002
2.512792e+003,1.690685e-002
2.514721e+003,1.728796e-002
2.516649e+003,1.720794e-002
2.518578e+003,1.697610e-002
2.520506e+003,1.698516e-002
2.522435e+003,1.709816e-002
2.524363e+003,1.714976e-002
2.526292e+003,1.719153e-002
2.528220e+003,1.729827e-002
2.530148e+003,1.755240e-002
2.532077e+003,1.745132e-002
2.534005e+003,1.739659e-002
2.535934e+003,1.761595e-002
2.537862e+003,1.756116e-002
2.539791e+003,1.749268e-002
2.541719e+003,1.754753e-002
2.543648e+003,1.766088e-002
2.545576e+003,1.767976e-002
2.547505e+003,1.779114e-002
2.549433e+003,1.785035e-002
2.551362e+003,1.794108e-002
2.553290e+003,1.796474e-002
2.555219e+003,1.799599e-002
2.557147e+003,1.821086e-002
2.559075e+003,1.825993e-002
2.561004e+003,1.830102e-002
2.562932e+003,1.840485e-002
2.564861e+003,1.834052e-002
2.566789e+003,1.838874e-002
2.568718e+003,1.819372e-002
2.570646e+003,1.801226e-002
2.572575e+003,1.834159e-002
2.574503e+003,1.851811e-002
2.576432e+003,1.840295e-002
2.578360e+003,1.842697e-002
2.580289e+003,1.856061e-002
2.582217e+003,1.866695e-002
2.584146e+003,1.873849e-002
2.586074e+003,1.882115e-002
2.588002e+003,1.886350e-002
2.589931e+003,1.886676e-002
2.591859e+003,1.891683e-002
2.593788e+003,1.888963e-002
2.595716e+003,1.877620e-002
2.597645e+003,1.898578e-002
2.599573e+003,1.925104e-002
2.601502e+003,1.937911e-002
2.603430e+003,1.933601e-002
2.605359e+003,1.911062e-002
2.607287e+003,1.906980e-002
2.609216e+003,1.929843e-002
2.611144e+003,1.944740e-002
2.613073e+003,1.959362e-002
2.615001e+003,1.970425e-002
2.616929e+003,1.956624e-002
2.618858e+003,1.934408e-002
2.620786e+003,1.954170e-002
2.622715e+003,1.994688e-002
2.624643e+003,2.007664e-002
2.626572e+003,1.976558e-002
2.628500e+003,1.938334e-002
2.630429e+003,1.936757e-002
2.632357e+003,1.953640e-002
2.634286e+003,1.950177e-002
2.636214e+003,1.948063e-002
2.638143e+003,1.962336e-002
2.640071e+003,1.978438e-002
2.642000e+003,1.968500e-002
2.643928e+003,1.959771e-002
2.645856e+003,1.976385e-002
2.647785e+003,1.985457e-002
2.649713e+003,1.987598e-002
2.651642e+003,1.981937e-002
2.653570e+003,1.967848e-002
2.655499e+003,1.969797e-002
2.657427e+003,2.002543e-002
2.659356e+003,2.014400e-002
2.661284e+003,1.982215e-002
2.663213e+003,1.951758e-002
2.665141e+003,1.952863e-002
2.667070e+003,2.012623e-002
2.668998e+003,2.055718e-002
2.670927e+003,2.040251e-002
2.672855e+003,2.011922e-002
2.674783e+003,2.017496e-002
2.676712e+003,2.028789e-002
2.678640e+003,2.027848e-002
2.680569e+003,2.020482e-002
2.682497e+003,2.026525e-002
2.684426e+003,2.037396e-002
2.686354e+003,2.023967e-002
2.688283e+003,2.025008e-002
2.690211e+003,2.046065e-002
2.692140e+003,2.044578e-002
2.694068e+003,2.048621e-002
2.695997e+003,2.064838e-002
2.697925e+003,2.074753e-002
2.699854e+003,2.083679e-002
2.701782e+003,2.091762e-002
2.703710e+003,2.101074e-002
2.705639e+003,2.122446e-002
2.707567e+003,2.128135e-002
2.709496e+003,2.129266e-002
2.711424e+003,2.116615e-002
2.713353e+003,2.111491e-002
2.715281e+003,2.149768e-002
2.717210e+003,2.181036e-002
2.719138e+003,2.169011e-002
2.721067e+003,2.161875e-002
2.722995e+003,2.165545e-002
2.724924e+003,2.179552e-002
2.726852e+003,2.201130e-002
2.728781e+003,2.235317e-002
2.730709e+003,2.223140e-002
2.732637e+003,2.230744e-002
2.734566e+003,2.254961e-002
2.736494e+003,2.262381e-002
2.738423e+003,2.248980e-002
2.740351e+003,2.234312e-002
2.742280e+003,2.233203e-002
2.744208e+003,2.255362e-002
2.746137e+003,2.258779e-002
2.748065e+003,2.254434e-002
2.749994e+003,2.289976e-002
2.751922e+003,2.351755e-002
2.753851e+003,2.370833e-002
2.755779e+003,2.326068e-002
2.757708e+003,2.305606e-002
2.759636e+003,2.315544e-002
2.761564e+003,2.346841e-002
2.763493e+003,2.371533e-002
2.765421e+003,2.387650e-002
2.767350e+003,2.396203e-002
2.769278e+003,2.385515e-002
2.771207e+003,2.402590e-002
2.773135e+003,2.428645e-002
2.775064e+003,2.429742e-002
2.776992e+003,2.432703e-002
2.778921e+003,2.453727e-002
2.780849e+003,2.479444e-002
2.782778e+003,2.464278e-002
2.784706e+003,2.459947e-002
2.786635e+003,2.507244e-002
2.788563e+003,2.535486e-002
2.790491e+003,2.550147e-002
2.792420e+003,2.570289e-002
2.794348e+003,2.589442e-002
2.796277e+003,2.592632e-002
2.798205e+003,2.631786e-002
2.800134e+003,2.675129e-002
2.802062e+003,2.664608e-002
2.803991e+003,2.682125e-002
2.805919e+003,2.731023e-002
2.807848e+003,2.772569e-002
2.809776e+003,2.784985e-002
2.811705e+003,2.828108e-002
2.813633e+003,2.918074e-002
2.815562e+003,2.952283e-002
2.817490e+003,2.986570e-002
2.819418e+003,3.084972e-002
2.821347e+003,3.147583e-002
2.823275e+003,3.195168e-002
2.825204e+003,3.294062e-002
2.827132e+003,3.368522e-002
2.829061e+003,3.406177e-002
2.830989e+003,3.483178e-002
2.832918e+003,3.593955e-002
2.834846e+003,3.678959e-002
2.836775e+003,3.703338e-002
2.838703e+003,3.716791e-002
2.840632e+003,3.728217e-002
2.842560e+003,3.720885e-002
2.844489e+003,3.679746e-002
2.846417e+003,3.616305e-002
2.848345e+003,3.561487e-002
2.850274e+003,3.496388e-002
2.852202e+003,3.434025e-002
2.854131e+003,3.440721e-002
2.856059e+003,3.518210e-002
2.857988e+003,3.583472e-002
2.859916e+003,3.611678e-002
2.861845e+003,3.651809e-002
2.863773e+003,3.697741e-002
2.865702e+003,3.761366e-002
2.867630e+003,3.804471e-002
2.869558e+003,3.836274e-002
2.871487e+003,3.902519e-002
2.873415e+003,3.968659e-002
2.875344e+003,4.054161e-002
2.877272e+003,4.098810e-002
2.879201e+003,4.067917e-002
2.881129e+003,4.053677e-002
2.883058e+003,4.055100e-002
2.884986e+003,4.060636e-002
2.886915e+003,4.084830e-002
2.888843e+003,4.121006e-002
2.890771e+003,4.162344e-002
2.892700e+003,4.212365e-002
2.894628e+003,4.263485e-002
2.896557e+003,4.292894e-002
2.898485e+003,4.373917e-002
2.900414e+003,4.454596e-002
2.902342e+003,4.506793e-002
2.904271e+003,4.569870e-002
2.906199e+003,4.621620e-002
2.908128e+003,4.721263e-002
2.910056e+003,4.840774e-002
2.911985e+003,4.827956e-002
2.913913e+003,4.768627e-002
2.915842e+003,4.766268e-002
2.917770e+003,4.807565e-002
2.919698e+003,4.875169e-002
2.921627e+003,4.954420e-002
2.923555e+003,4.981985e-002
2.925484e+003,5.043211e-002
2.927412e+003,5.147073e-002
2.929341e+003,5.194093e-002
2.931269e+003,5.226493e-002
2.933198e+003,5.303733e-002
2.935126e+003,5.438922e-002
2.937055e+003,5.536539e-002
2.938983e+003,5.537205e-002
2.940912e+003,5.507205e-002
2.942840e+003,5.507262e-002
2.944769e+003,5.484824e-002
2.946697e+003,5.429039e-002
2.948625e+003,5.385024e-002
2.950554e+003,5.355744e-002
2.952482e+003,5.326723e-002
2.954411e+003,5.309691e-002
2.956339e+003,5.294577e-002
2.958268e+003,5.284364e-002
2.960196e+003,5.266170e-002
2.962125e+003,5.210841e-002
2.964053e+003,5.123705e-002
2.965982e+003,5.076504e-002
2.967910e+003,5.100108e-002
2.969839e+003,5.072486e-002
2.971767e+003,4.927177e-002
2.973696e+003,4.834582e-002
2.975624e+003,4.813954e-002
2.977552e+003,4.802724e-002
2.979481e+003,4.779052e-002
2.981409e+003,4.732852e-002
2.983338e+003,4.656671e-002
2.985266e+003,4.621664e-002
2.987195e+003,4.600721e-002
2.989123e+003,4.537923e-002
2.991052e+003,4.449152e-002
2.992980e+003,4.435139e-002
2.994909e+003,4.438023e-002
2.996837e+003,4.377135e-002
2.998766e+003,4.312562e-002
3.000694e+003,4.303850e-002
3.002623e+003,4.292879e-002
3.004551e+003,4.296757e-002
3.006479e+003,4.285298e-002
3.008408e+003,4.244077e-002
3.010336e+003,4.238743e-002
3.012265e+003,4.229305e-002
3.014193e+003,4.210820e-002
3.016122e+003,4.221285e-002
3.018050e+003,4.226051e-002
3.019979e+003,4.233644e-002
3.021907e+003,4.239733e-002
3.023836e+003,4.257484e-002
3.025764e+003,4.318681e-002
3.027693e+003,4.310714e-002
3.029621e+003,4.258865e-002
3.031550e+003,4.293786e-002
3.033478e+003,4.333176e-002
3.035406e+003,4.327403e-002
3.037335e+003,4.324983e-002
3.039263e+003,4.370923e-002
3.041192e+003,4.422748e-002
3.043120e+003,4.444857e-002
3.045049e+003,4.450125e-002
3.046977e+003,4.446179e-002
3.048906e+003,4.473126e-002
3.050834e+003,4.518274e-002
3.052763e+003,4.562946e-002
3.054691e+003,4.562858e-002
3.056620e+003,4.577744e-002
3.058548e+003,4.607746e-002
3.060477e+003,4.653252e-002
3.062405e+003,4.699312e-002
3.064333e+003,4.717388e-002
3.066262e+003,4.734585e-002
3.068190e+003,4.770886e-002
3.070119e+003,4.827205e-002
3.072047e+003,4.863805e-002
3.073976e+003,4.928936e-002
3.075904e+003,5.000890e-002
3.077833e+003,5.046590e-002
3.079761e+003,5.073678e-002
3.081690e+003,5.036454e-002
3.083618e+003,5.033354e-002
3.085547e+003,5.070617e-002
3.087475e+003,5.126833e-002
3.089404e+003,5.185456e-002
3.091332e+003,5.216920e-002
3.093260e+003,5.290370e-002
3.095189e+003,5.358795e-002
3.097117e+003,5.399106e-002
3.099046e+003,5.465072e-002
3.100974e+003,5.507713e-002
3.102903e+003,5.525275e-002
3.104831e+003,5.586522e-002
3.106760e+003,5.624263e-002
3.108688e+003,5.681303e-002
3.110617e+003,5.719893e-002
3.112545e+003,5.774160e-002
3.114474e+003,5.863056e-002
3.116402e+003,5.928671e-002
3.118331e+003,5.968086e-002
3.120259e+003,5.988821e-002
3.122188e+003,6.023102e-002
3.124116e+003,6.083043e-002
3.126044e+003,6.158586e-002
3.127973e+003,6.243406e-002
3.129901e+003,6.338605e-002
3.131830e+003,6.392416e-002
3.133758e+003,6.419583e-002
3.135687e+003,6.478367e-002
3.137615e+003,6.528461e-002
3.139544e+003,6.548294e-002
3.141472e+003,6.605396e-002
3.143401e+003,6.689244e-002
3.145329e+003,6.753801e-002
3.147258e+003,6.820315e-002
3.149186e+003,6.865605e-002
3.151115e+003,6.928489e-002
3.153043e+003,7.032259e-002
3.154971e+003,7.082770e-002
3.156900e+003,7.146150e-002
3.158828e+003,7.229628e-002
3.160757e+003,7.243116e-002
3.162685e+003,7.260207e-002
3.164614e+003,7.348798e-002
3.166542e+003,7.427686e-002
3.168471e+003,7.488827e-002
3.170399e+003,7.587466e-002
3.172328e+003,7.674406e-002
3.174256e+003,7.687242e-002
3.176185e+003,7.731181e-002
3.178113e+003,7.823616e-002
3.180042e+003,7.887633e-002
3.181970e+003,7.951296e-002
3.183898e+003,8.005694e-002
3.185827e+003,8.029693e-002
3.187755e+003,8.092215e-002
3.189684e+003,8.151765e-002
3.191612e+003,8.198589e-002
3.193541e+003,8.292186e-002
3.195469e+003,8.317687e-002
3.197398e+003,8.341767e-002
3.199326e+003,8.387322e-002
3.201255e+003,8.492279e-002
3.203183e+003,8.538674e-002
3.205112e+003,8.599543e-002
3.207040e+003,8.717726e-002
3.208969e+003,8.829877e-002
3.210897e+003,8.822370e-002
3.212825e+003,8.797766e-002
3.214754e+003,8.922057e-002
3.216682e+003,9.041302e-002
3.218611e+003,9.081168e-002
3.220539e+003,9.127533e-002
3.222468e+003,9.173200e-002
3.224396e+003,9.186954e-002
3.226325e+003,9.155675e-002
3.228253e+003,9.191318e-002
3.230182e+003,9.310292e-002
3.232110e+003,9.420560e-002
3.234039e+003,9.453665e-002
3.235967e+003,9.508915e-002
3.237896e+003,9.532401e-002
3.239824e+003,9.558229e-002
3.241752e+003,9.577513e-002
3.243681e+003,9.626566e-002
3.245609e+003,9.656973e-002
3.247538e+003,9.650874e-002
3.249466e+003,9.683402e-002
3.251395e+003,9.715962e-002
3.253323e+003,9.671775e-002
3.255252e+003,9.726506e-002
3.257180e+003,9.762704e-002
3.259109e+003,9.786262e-002
3.261037e+003,9.837569e-002
3.262966e+003,9.854822e-002
3.264894e+003,9.860281e-002
3.266823e+003,9.864656e-002
3.268751e+003,9.903583e-002
3.270679e+003,9.961624e-002
3.272608e+003,1.002741e-001
3.274536e+003,1.007358e-001
3.276465e+003,1.005006e-001
3.278393e+003,1.004144e-001
3.280322e+003,1.011314e-001
3.282250e+003,1.020692e-001
3.284179e+003,1.018634e-001
3.286107e+003,1.012941e-001
3.288036e+003,1.016040e-001
3.289964e+003,1.015150e-001
3.291893e+003,1.012429e-001
3.293821e+003,1.021614e-001
3.295750e+003,1.022630e-001
3.297678e+003,1.020557e-001
3.299606e+003,1.024630e-001
3.301535e+003,1.026274e-001
3.303463e+003,1.028094e-001
3.305392e+003,1.029940e-001
3.307320e+003,1.038155e-001
3.309249e+003,1.039773e-001
3.311177e+003,1.032412e-001
3.313106e+003,1.036176e-001
3.315034e+003,1.048345e-001
3.316963e+003,1.051414e-001
3.318891e+003,1.048753e-001
3.320820e+003,1.051451e-001
3.322748e+003,1.056173e-001
3.324677e+003,1.057800e-001
3.326605e+003,1.060507e-001
3.328533e+003,1.062499e-001
3.330462e+003,1.057904e-001
3.332390e+003,1.056366e-001
3.334319e+003,1.057654e-001
3.336247e+003,1.070084e-001
3.338176e+003,1.074256e-001
3.340104e+003,1.074112e-001
3.342033e+003,1.077665e-001
3.343961e+003,1.078190e-001
3.345890e+003,1.077405e-001
3.347818e+003,1.081126e-001
3.349747e+003,1.076588e-001
3.351675e+003,1.074602e-001
3.353604e+003,1.083802e-001
3.355532e+003,1.093932e-001
3.357460e+003,1.102819e-001
3.359389e+003,1.101563e-001
3.361317e+003,1.097948e-001
3.363246e+003,1.100141e-001
3.365174e+003,1.096191e-001
3.367103e+003,1.092954e-001
3.369031e+003,1.094845e-001
3.370960e+003,1.106202e-001
3.372888e+003,1.114783e-001
3.374817e+003,1.113357e-001
3.376745e+003,1.104768e-001
3.378674e+003,1.109718e-001
3.380602e+003,1.112774e-001
3.382531e+003,1.107903e-001
3.384459e+003,1.102579e-001
3.386387e+003,1.104539e-001
3.388316e+003,1.102041e-001
3.390244e+003,1.104432e-001
3.392173e+003,1.106292e-001
3.394101e+003,1.103020e-001
3.396030e+003,1.094724e-001
3.397958e+003,1.090385e-001
3.399887e+003,1.090903e-001
3.401815e+003,1.090072e-001
3.403744e+003,1.098305e-001
3.405672e+003,1.109108e-001
3.407601e+003,1.104794e-001
3.409529e+003,1.100091e-001
3.411458e+003,1.097383e-001
3.413386e+003,1.093619e-001
3.415314e+003,1.093855e-001
3.417243e+003,1.091377e-001
3.419171e+003,1.082565e-001
3.421100e+003,1.073981e-001
3.423028e+003,1.071042e-001
3.424957e+003,1.069780e-001
3.426885e+003,1.058849e-001
3.428814e+003,1.054193e-001
3.430742e+003,1.056273e-001
3.432671e+003,1.055916e-001
3.434599e+003,1.049569e-001
3.436528e+003,1.051444e-001
3.438456e+003,1.048514e-001
3.440385e+003,1.037106e-001
3.442313e+003,1.033318e-001
3.444241e+003,1.031833e-001
3.446170e+003,1.023353e-001
3.448098e+003,1.014282e-001
3.450027e+003,1.015005e-001
3.451955e+003,1.012665e-001
3.453884e+003,1.001660e-001
3.455812e+003,9.988184e-002
3.457741e+003,9.938633e-002
3.459669e+003,9.869637e-002
3.461598e+003,9.777563e-002
3.463526e+003,9.737629e-002
3.465455e+003,9.664659e-002
3.467383e+003,9.620566e-002
3.469312e+003,9.570775e-002
3.471240e+003,9.481269e-002
3.473168e+003,9.371738e-002
3.475097e+003,9.294898e-002
3.477025e+003,9.308884e-002
3.478954e+003,9.287651e-002
3.480882e+003,9.183503e-002
3.482811e+003,9.115323e-002
3.484739e+003,9.116472e-002
3.486668e+003,9.042489e-002
3.488596e+003,8.949992e-002
3.490525e+003,8.885805e-002
3.492453e+003,8.776348e-002
3.494382e+003,8.677723e-002
3.496310e+003,8.669481e-002
3.498239e+003,8.630145e-002
3.500167e+003,8.517762e-002
3.502095e+003,8.371260e-002
3.504024e+003,8.297876e-002
3.505952e+003,8.363607e-002
3.507881e+003,8.356883e-002
3.509809e+003,8.215632e-002
3.511738e+003,8.115898e-002
3.513666e+003,8.024805e-002
3.515595e+003,7.879688e-002
3.517523e+003,7.845251e-002
3.519452e+003,7.848430e-002
3.521380e+003,7.727151e-002
3.523309e+003,7.581468e-002
3.525237e+003,7.553950e-002
3.527166e+003,7.551754e-002
3.529094e+003,7.469107e-002
3.531022e+003,7.361142e-002
3.532951e+003,7.317933e-002
3.534879e+003,7.232794e-002
3.536808e+003,7.077473e-002
3.538736e+003,6.952573e-002
3.540665e+003,6.846077e-002
3.542593e+003,6.808349e-002
3.544522e+003,6.761075e-002
3.546450e+003,6.661578e-002
3.548379e+003,6.566845e-002
3.550307e+003,6.482710e-002
3.552236e+003,6.379047e-002
3.554164e+003,6.278782e-002
3.556093e+003,6.127341e-002
3.558021e+003,5.987052e-002
3.559949e+003,5.959309e-002
3.561878e+003,5.926282e-002
3.563806e+003,5.842939e-002
3.565735e+003,5.686375e-002
3.567663e+003,5.597603e-002
3.569592e+003,5.521121e-002
3.571520e+003,5.390272e-002
3.573449e+003,5.299922e-002
3.575377e+003,5.220566e-002
3.577306e+003,5.117170e-002
3.579234e+003,4.988901e-002
3.581163e+003,4.868497e-002
3.583091e+003,4.844782e-002
3.585020e+003,4.777713e-002
3.586948e+003,4.644892e-002
3.588876e+003,4.608174e-002
3.590805e+003,4.576268e-002
3.592733e+003,4.461319e-002
3.594662e+003,4.359492e-002
3.596590e+003,4.285144e-002
3.598519e+003,4.243353e-002
3.600447e+003,4.190527e-002
3.602376e+003,4.162041e-002
3.604304e+003,4.070668e-002
3.606233e+003,3.937094e-002
3.608161e+003,3.853683e-002
3.610090e+003,3.786062e-002
3.612018e+003,3.719026e-002
3.613947e+003,3.650522e-002
3.615875e+003,3.541815e-002
3.617803e+003,3.497415e-002
3.619732e+003,3.460699e-002
3.621660e+003,3.406052e-002
3.623589e+003,3.304401e-002
3.625517e+003,3.206211e-002
3.627446e+003,3.152418e-002
3.629374e+003,3.083385e-002
3.631303e+003,2.948801e-002
3.633231e+003,2.907422e-002
3.635160e+003,2.873814e-002
3.637088e+003,2.829791e-002
3.639017e+003,2.774116e-002
3.640945e+003,2.706528e-002
3.642874e+003,2.584272e-002
3.644802e+003,2.487538e-002
3.646730e+003,2.453976e-002
3.648659e+003,2.404846e-002
3.650587e+003,2.364640e-002
3.652516e+003,2.292820e-002
3.654444e+003,2.199527e-002
3.656373e+003,2.129391e-002
3.658301e+003,2.086648e-002
3.660230e+003,2.004462e-002
3.662158e+003,1.896889e-002
3.664087e+003,1.808738e-002
3.666015e+003,1.811612e-002
3.667944e+003,1.839029e-002
3.669872e+003,1.787990e-002
3.671801e+003,1.719115e-002
3.673729e+003,1.713108e-002
3.675657e+003,1.655493e-002
3.677586e+003,1.558409e-002
3.679514e+003,1.521500e-002
3.681443e+003,1.525766e-002
3.683371e+003,1.480849e-002
3.685300e+003,1.443787e-002
3.687228e+003,1.401829e-002
3.689157e+003,1.390572e-002
3.691085e+003,1.415136e-002
3.693014e+003,1.403821e-002
3.694942e+003,1.366627e-002
3.696871e+003,1.260845e-002
3.698799e+003,1.245355e-002
3.700728e+003,1.259402e-002
3.702656e+003,1.283575e-002
3.704584e+003,1.270431e-002
3.706513e+003,1.266191e-002
3.708441e+003,1.257636e-002
3.710370e+003,1.203973e-002
3.712298e+003,1.214347e-002
3.714227e+003,1.225607e-002
3.716155e+003,1.201119e-002
3.718084e+003,1.204004e-002
3.720012e+003,1.258983e-002
3.721941e+003,1.247145e-002
3.723869e+003,1.221998e-002
3.725798e+003,1.223391e-002
3.727726e+003,1.212191e-002
3.729655e+003,1.208109e-002
3.731583e+003,1.193142e-002
3.733511e+003,1.241755e-002
3.735440e+003,1.241062e-002
3.737368e+003,1.207032e-002
3.739297e+003,1.219667e-002
3.741225e+003,1.228347e-002
3.743154e+003,1.195539e-002
3.745082e+003,1.188187e-002
3.747011e+003,1.161422e-002
3.748939e+003,1.124248e-002
3.750868e+003,1.067201e-002
3.752796e+003,1.022718e-002
3.754725e+003,1.052856e-002
3.756653e+003,1.050097e-002
3.758582e+003,1.034335e-002
3.760510e+003,1.059623e-002
3.762438e+003,1.136709e-002
3.764367e+003,1.147502e-002
3.766295e+003,1.066587e-002
3.768224e+003,1.072618e-002
3.770152e+003,1.112492e-002
3.772081e+003,1.076809e-002
3.774009e+003,1.041326e-002
3.775938e+003,1.044754e-002
3.777866e+003,1.074914e-002
3.779795e+003,1.059344e-002
3.781723e+003,1.064485e-002
3.783652e+003,1.052276e-002
3.785580e+003,1.015185e-002
3.787509e+003,1.049777e-002
3.789437e+003,1.109361e-002
3.791365e+003,1.056828e-002
3.793294e+003,9.886488e-003
3.795222e+003,9.762409e-003
3.797151e+003,9.510259e-003
3.799079e+003,9.868048e-003
3.801008e+003,1.056927e-002
3.802936e+003,1.066162e-002
3.804865e+003,1.043325e-002
3.806793e+003,1.024025e-002
3.808722e+003,9.993989e-003
3.810650e+003,1.020049e-002
3.812579e+003,1.022359e-002
3.814507e+003,1.019967e-002
3.816436e+003,1.044045e-002
3.818364e+003,1.080366e-002
3.820292e+003,1.051495e-002
3.822221e+003,1.043495e-002
3.824149e+003,1.019615e-002
3.826078e+003,1.017997e-002
3.828006e+003,1.033592e-002
3.829935e+003,1.022912e-002
3.831863e+003,1.009385e-002
3.833792e+003,1.019713e-002
3.835720e+003,1.019703e-002
3.837649e+003,1.003641e-002
3.839577e+003,1.018173e-002
3.841506e+003,1.008626e-002
3.843434e+003,1.017305e-002
3.845363e+003,1.030406e-002
3.847291e+003,9.680545e-003
3.849219e+003,9.841644e-003
3.851148e+003,1.015205e-002
3.853076e+003,1.023404e-002
3.855005e+003,1.045721e-002
3.856933e+003,1.043403e-002
3.858862e+003,9.881709e-003
3.860790e+003,1.002128e-002
3.862719e+003,1.032174e-002
3.864647e+003,1.053172e-002
3.866576e+003,1.044330e-002
3.868504e+003,1.056679e-002
3.870433e+003,1.078487e-002
3.872361e+003,1.048033e-002
3.874290e+003,1.062302e-002
3.876218e+003,1.129363e-002
3.878146e+003,1.137324e-002
3.880075e+003,1.057236e-002
3.882003e+003,1.044353e-002
3.883932e+003,1.009270e-002
3.885860e+003,9.705720e-003
3.887789e+003,9.692573e-003
3.889717e+003,1.007388e-002
3.891646e+003,9.989174e-003
3.893574e+003,1.041594e-002
3.895503e+003,1.060264e-002
3.897431e+003,1.011681e-002
3.899360e+003,9.499727e-003
3.901288e+003,9.574104e-003
3.903217e+003,1.010464e-002
3.905145e+003,9.967882e-003
3.907073e+003,9.959203e-003
3.909002e+003,1.005913e-002
3.910930e+003,1.022243e-002
3.912859e+003,1.020568e-002
3.914787e+003,9.671126e-003
3.916716e+003,9.344204e-003
3.918644e+003,9.597139e-003
3.920573e+003,1.032293e-002
3.922501e+003,1.112413e-002
3.924430e+003,1.162096e-002
3.926358e+003,1.094383e-002
3.928287e+003,1.044004e-002
3.930215e+003,1.077424e-002
3.932144e+003,1.063310e-002
3.934072e+003,1.073596e-002
3.936000e+003,1.057494e-002
3.937929e+003,1.003190e-002
3.939857e+003,9.839578e-003
3.941786e+003,1.043464e-002
3.943714e+003,1.057066e-002
3.945643e+003,1.037305e-002
3.947571e+003,1.077040e-002
3.949500e+003,1.060152e-002
3.951428e+003,9.814090e-003
3.953357e+003,9.525025e-003
3.955285e+003,9.791282e-003
3.957214e+003,1.042348e-002
3.959142e+003,1.058200e-002
3.961071e+003,1.042891e-002
3.962999e+003,1.025110e-002
3.964927e+003,9.749295e-003
3.966856e+003,9.596257e-003
3.968784e+003,9.168838e-003
3.970713e+003,9.807006e-003
3.972641e+003,1.059684e-002
3.974570e+003,1.036955e-002
3.976498e+003,1.035734e-002
3.978427e+003,1.039857e-002
3.980355e+003,1.004919e-002
3.982284e+003,9.807888e-003
3.984212e+003,9.614177e-003
3.986141e+003,9.972866e-003
3.988069e+003,1.022861e-002
3.989998e+003,1.021809e-002
3.991926e+003,1.028747e-002
3.993854e+003,1.073841e-002
3.995783e+003,1.056981e-002
3.997711e+003,1.029307e-002
3.999640e+003,1.054377e-002
4.001568e+003,0.000000e+000
