3.991927e+002,0.000000e+000
4.011211e+002,0.000000e+000
4.030496e+002,0.000000e+000
4.049781e+002,0.000000e+000
4.069065e+002,0.000000e+000
4.088350e+002,0.000000e+000
4.107635e+002,0.000000e+000
4.126919e+002,0.000000e+000
4.146204e+002,0.000000e+000
4.165489e+002,0.000000e+000
4.184773e+002,0.000000e+000
4.204058e+002,0.000000e+000
4.223343e+002,0.000000e+000
4.242627e+002,0.000000e+000
4.261912e+002,0.000000e+000
4.281197e+002,0.000000e+000
4.300481e+002,0.000000e+000
4.319766e+002,0.000000e+000
4.339051e+002,0.000000e+000
4.358335e+002,0.000000e+000
4.377620e+002,0.000000e+000
4.396905e+002,0.000000e+000
4.416189e+002,0.000000e+000
4.435474e+002,0.000000e+000
4.454759e+002,0.000000e+000
4.474043e+002,0.000000e+000
4.493328e+002,0.000000e+000
4.512613e+002,0.000000e+000
4.531897e+002,0.000000e+000
4.551182e+002,0.000000e+000
4.570467e+002,0.000000e+000
4.589751e+002,0.000000e+000
4.609036e+002,0.000000e+000
4.628321e+002,0.000000e+000
4.647605e+002,0.000000e+000
4.666890e+002,0.000000e+000
4.686175e+002,0.000000e+000
4.705459e+002,0.000000e+000
4.724744e+002,0.000000e+000
4.744029e+002,0.000000e+000
4.763313e+002,0.000000e+000
4.782598e+002,0.000000e+000
4.801883e+002,0.000000e+000
4.821167e+002,0.000000e+000
4.840452e+002,0.000000e+000
4.859737e+002,0.000000e+000
4.879021e+002,0.000000e+000
4.898306e+002,0.000000e+000
4.917591e+002,0.000000e+000
4.936875e+002,0.000000e+000
4.956160e+002,0.000000e+000
4.975445e+002,0.000000e+000
4.994729e+002,0.000000e+000
5.014014e+002,0.000000e+000
5.033299e+002,0.000000e+000
5.052583e+002,0.000000e+000
5.071868e+002,0.000000e+000
5.091153e+002,0.000000e+000
5.110437e+002,0.000000e+000
5.129722e+002,0.000000e+000
5.149006e+002,0.000000e+000
5.168291e+002,0.000000e+000
5.187576e+002,0.000000e+000
5.206860e+002,0.000000e+000
5.226145e+002,0.000000e+000
5.245430e+002,0.000000e+000
5.264714e+002,0.000000e+000
5.283999e+002,0.000000e+000
5.303284e+002,0.000000e+000
5.322568e+002,0.000000e+000
5.341853e+002,0.000000e+000
5.361138e+002,0.000000e+000
5.380422e+002,0.000000e+000
5.399707e+002,0.000000e+000
5.418992e+002,0.000000e+000
5.438276e+002,0.000000e+000
5.457561e+002,0.000000e+000
5.476846e+002,0.000000e+000
5.496130e+002,0.000000e+000
5.515415e+002,0.000000e+000
5.534700e+002,0.000000e+000
5.553984e+002,0.000000e+000
5.573269e+002,0.000000e+000
5.592554e+002,0.000000e+000
5.611838e+002,0.000000e+000
5.631123e+002,0.000000e+000
5.650408e+002,0.000000e+000
5.669692e+002,0.000000e+000
5.688977e+002,0.000000e+000
5.708262e+002,0.000000e+000
5.727546e+002,0.000000e+000
5.746831e+002,0.000000e+000
5.766116e+002,0.000000e+000
5.785400e+002,0.000000e+000
5.804685e+002,0.000000e+000
5.823970e+002,0.000000e+000
5.843254e+002,0.000000e+000
5.862539e+002,0.000000e+000
5.881824e+002,0.000000e+000
5.901108e+002,0.000000e+000
5.920393e+002,0.000000e+000
5.939678e+002,0.000000e+000
5.958962e+002,0.000000e+000
5.978247e+002,0.000000e+000
5.997532e+002,0.000000e+000
6.016816e+002,0.000000e+000
6.036101e+002,0.000000e+000
6.055386e+002,0.000000e+000
6.074670e+002,0.000000e+000
6.093955e+002,0.000000e+000
6.113240e+002,0.000000e+000
6.132524e+002,0.000000e+000
6.151809e+002,0.000000e+000
6.171094e+002,0.000000e+000
6.190378e+002,0.000000e+000
6.209663e+002,0.000000e+000
6.228948e+002,0.000000e+000
6.248232e+002,0.000000e+000
6.267517e+002,0.000000e+000
6.286802e+002,0.000000e+000
6.306086e+002,0.000000e+000
6.325371e+002,0.000000e+000
6.344656e+002,0.000000e+000
6.363940e+002,0.000000e+000
6.383225e+002,0.000000e+000
6.402510e+002,0.000000e+000
6.421794e+002,0.000000e+000
6.441079e+002,0.000000e+000
6.460364e+002,0.000000e+000
6.479648e+002,0.000000e+000
6.498933e+002,1.199322e-001
6.518218e+002,1.178473e-001
6.537502e+002,1.162647e-001
6.556787e+002,1.161678e-001
6.576072e+002,1.157075e-001
6.595356e+002,1.143761e-001
6.614641e+002,1.127360e-001
6.633926e+002,1.114835e-001
6.653210e+002,1.118092e-001
6.672495e+002,1.105450e-001
6.691780e+002,1.092137e-001
6.711064e+002,1.087536e-001
6.730349e+002,1.079799e-001
6.749634e+002,1.067955e-001
6.768918e+002,1.058735e-001
6.788203e+002,1.049156e-001
6.807488e+002,1.048462e-001
6.826772e+002,1.047834e-001
6.846057e+002,1.044041e-001
6.865342e+002,1.032723e-001
6.884626e+002,1.022398e-001
6.903911e+002,1.019842e-001
6.923196e+002,1.011119e-001
6.942480e+002,9.974045e-002
6.961765e+002,9.957678e-002
6.981050e+002,9.922633e-002
7.000334e+002,9.784415e-002
7.019619e+002,9.722345e-002
7.038904e+002,9.712452e-002
7.058188e+002,9.729781e-002
7.077473e+002,9.699749e-002
7.096758e+002,9.589395e-002
7.116042e+002,9.530375e-002
7.135327e+002,9.479847e-002
7.154612e+002,9.410913e-002
7.173896e+002,9.486500e-002
7.193181e+002,9.567566e-002
7.212466e+002,9.529150e-002
7.231750e+002,9.533511e-002
7.251035e+002,9.650170e-002
7.270320e+002,9.723518e-002
7.289604e+002,9.727962e-002
7.308889e+002,9.758423e-002
7.328174e+002,9.804194e-002
7.347458e+002,9.811636e-002
7.366743e+002,9.780489e-002
7.386028e+002,9.855907e-002
7.405313e+002,9.952711e-002
7.424597e+002,9.938396e-002
7.443882e+002,9.999345e-002
7.463167e+002,1.005973e-001
7.482451e+002,1.013756e-001
7.501736e+002,1.011902e-001
7.521021e+002,1.016744e-001
7.540305e+002,1.015076e-001
7.559590e+002,1.008516e-001
7.578875e+002,1.005161e-001
7.598159e+002,1.003387e-001
7.617444e+002,9.911787e-002
7.636729e+002,9.871958e-002
7.656013e+002,9.843345e-002
7.675298e+002,9.840661e-002
7.694583e+002,9.821547e-002
7.713867e+002,9.766746e-002
7.733152e+002,9.797446e-002
7.752437e+002,9.813588e-002
7.771721e+002,9.832947e-002
7.791006e+002,9.885914e-002
7.810291e+002,9.810448e-002
7.829575e+002,9.715287e-002
7.848860e+002,9.749220e-002
7.868145e+002,9.799609e-002
7.887429e+002,9.792684e-002
7.906714e+002,9.732754e-002
7.925999e+002,9.600503e-002
7.945283e+002,9.387928e-002
7.964568e+002,9.198390e-002
7.983853e+002,9.196047e-002
8.003137e+002,9.245615e-002
8.022422e+002,9.394583e-002
8.041707e+002,9.614450e-002
8.060991e+002,9.782548e-002
8.080276e+002,9.848653e-002
8.099561e+002,9.912948e-002
8.118845e+002,1.007632e-001
8.138130e+002,1.019187e-001
8.157415e+002,1.011347e-001
8.176699e+002,1.013726e-001
8.195984e+002,1.018268e-001
8.215269e+002,1.015352e-001
8.234553e+002,1.005069e-001
8.253838e+002,9.987292e-002
8.273123e+002,9.952386e-002
8.292407e+002,9.875564e-002
8.311692e+002,9.719286e-002
8.330977e+002,9.509756e-002
8.350261e+002,9.404621e-002
8.369546e+002,9.388188e-002
8.388831e+002,9.272003e-002
8.408115e+002,9.302635e-002
8.427400e+002,9.362974e-002
8.446685e+002,9.398463e-002
8.465969e+002,9.507789e-002
8.485254e+002,9.562445e-002
8.504539e+002,9.671966e-002
8.523823e+002,9.785457e-002
8.543108e+002,9.943286e-002
8.562393e+002,1.000395e-001
8.581677e+002,9.853458e-002
8.600962e+002,9.766658e-002
8.620247e+002,9.753608e-002
8.639531e+002,9.621951e-002
8.658816e+002,9.461192e-002
8.678101e+002,9.348404e-002
8.697385e+002,9.252305e-002
8.716670e+002,9.295354e-002
8.735955e+002,9.371171e-002
8.755239e+002,9.334160e-002
8.774524e+002,9.323119e-002
8.793809e+002,9.302750e-002
8.813093e+002,9.344147e-002
8.832378e+002,9.410979e-002
8.851663e+002,9.470113e-002
8.870947e+002,9.524462e-002
8.890232e+002,9.525345e-002
8.909517e+002,9.501809e-002
8.928801e+002,9.359858e-002
8.948086e+002,9.209591e-002
8.967371e+002,9.209775e-002
8.986655e+002,9.250686e-002
9.005940e+002,9.199683e-002
9.025225e+002,9.217595e-002
9.044509e+002,9.329177e-002
9.063794e+002,9.385197e-002
9.083079e+002,9.452310e-002
9.102363e+002,9.545934e-002
9.121648e+002,9.629916e-002
9.140933e+002,9.768434e-002
9.160217e+002,9.859591e-002
9.179502e+002,9.875336e-002
9.198787e+002,9.950089e-002
9.218071e+002,1.001015e-001
9.237356e+002,1.003168e-001
9.256641e+002,9.998561e-002
9.275925e+002,9.964316e-002
9.295210e+002,9.934048e-002
9.314495e+002,9.915413e-002
9.333779e+002,9.916025e-002
9.353064e+002,9.923603e-002
9.372349e+002,9.968347e-002
9.391633e+002,9.976864e-002
9.410918e+002,1.004165e-001
9.430203e+002,1.012904e-001
9.449487e+002,1.016875e-001
9.468772e+002,1.026730e-001
9.488057e+002,1.036811e-001
9.507341e+002,1.039786e-001
9.526626e+002,1.044364e-001
9.545911e+002,1.056216e-001
9.565195e+002,1.063141e-001
9.584480e+002,1.066797e-001
9.603765e+002,1.075766e-001
9.623049e+002,1.086184e-001
9.642334e+002,1.104198e-001
9.661619e+002,1.118652e-001
9.680903e+002,1.121494e-001
9.700188e+002,1.126098e-001
9.719473e+002,1.132914e-001
9.738757e+002,1.137398e-001
9.758042e+002,1.145471e-001
9.777327e+002,1.153832e-001
9.796611e+002,1.163712e-001
9.815896e+002,1.178086e-001
9.835181e+002,1.191041e-001
9.854465e+002,1.202511e-001
9.873750e+002,1.215007e-001
9.893035e+002,1.225421e-001
9.912319e+002,1.235788e-001
9.931604e+002,1.243313e-001
9.950889e+002,1.250892e-001
9.970173e+002,1.259126e-001
9.989458e+002,1.263578e-001
1.000874e+003,1.272557e-001
1.002803e+003,1.293231e-001
1.004731e+003,1.314740e-001
1.006660e+003,1.335894e-001
1.008588e+003,1.358320e-001
1.010517e+003,1.377152e-001
1.012445e+003,1.399423e-001
1.014374e+003,1.417947e-001
1.016302e+003,1.435457e-001
1.018230e+003,1.454954e-001
1.020159e+003,1.473437e-001
1.022087e+003,1.502807e-001
1.024016e+003,1.539889e-001
1.025944e+003,1.573861e-001
1.027873e+003,1.612004e-001
1.029801e+003,1.633552e-001
1.031730e+003,1.633056e-001
1.033658e+003,1.615826e-001
1.035587e+003,1.590271e-001
1.037515e+003,1.557126e-001
1.039444e+003,1.515226e-001
1.041372e+003,1.479362e-001
1.043301e+003,1.451350e-001
1.045229e+003,1.431876e-001
1.047157e+003,1.421657e-001
1.049086e+003,1.406927e-001
1.051014e+003,1.387374e-001
1.052943e+003,1.376205e-001
1.054871e+003,1.365390e-001
1.056800e+003,1.353029e-001
1.058728e+003,1.337167e-001
1.060657e+003,1.323417e-001
1.062585e+003,1.313173e-001
1.064514e+003,1.307496e-001
1.066442e+003,1.307312e-001
1.068371e+003,1.312264e-001
1.070299e+003,1.316608e-001
1.072228e+003,1.316819e-001
1.074156e+003,1.313865e-001
1.076084e+003,1.318202e-001
1.078013e+003,1.323296e-001
1.079941e+003,1.312422e-001
1.081870e+003,1.301988e-001
1.083798e+003,1.290000e-001
1.085727e+003,1.286186e-001
1.087655e+003,1.282456e-001
1.089584e+003,1.272820e-001
1.091512e+003,1.261327e-001
1.093441e+003,1.255156e-001
1.095369e+003,1.250607e-001
1.097298e+003,1.240137e-001
1.099226e+003,1.226970e-001
1.101155e+003,1.219387e-001
1.103083e+003,1.232413e-001
1.105011e+003,1.243050e-001
1.106940e+003,1.248316e-001
1.108868e+003,1.253475e-001
1.110797e+003,1.263710e-001
1.112725e+003,1.273286e-001
1.114654e+003,1.277993e-001
1.116582e+003,1.280691e-001
1.118511e+003,1.285961e-001
1.120439e+003,1.282056e-001
1.122368e+003,1.266836e-001
1.124296e+003,1.248061e-001
1.126225e+003,1.217785e-001
1.128153e+003,1.184812e-001
1.130082e+003,1.163048e-001
1.132010e+003,1.146771e-001
1.133938e+003,1.134472e-001
1.135867e+003,1.129457e-001
1.137795e+003,1.128251e-001
1.139724e+003,1.123613e-001
1.141652e+003,1.122136e-001
1.143581e+003,1.125695e-001
1.145509e+003,1.129746e-001
1.147438e+003,1.141597e-001
1.149366e+003,1.153165e-001
1.151295e+003,1.152414e-001
1.153223e+003,1.144668e-001
1.155152e+003,1.131149e-001
1.157080e+003,1.117814e-001
1.159009e+003,1.102496e-001
1.160937e+003,1.086087e-001
1.162865e+003,1.074334e-001
1.164794e+003,1.069471e-001
1.166722e+003,1.071381e-001
1.168651e+003,1.072792e-001
1.170579e+003,1.073701e-001
1.172508e+003,1.080896e-001
1.174436e+003,1.097353e-001
1.176365e+003,1.107177e-001
1.178293e+003,1.110472e-001
1.180222e+003,1.121898e-001
1.182150e+003,1.137727e-001
1.184079e+003,1.151702e-001
1.186007e+003,1.161715e-001
1.187936e+003,1.171967e-001
1.189864e+003,1.188030e-001
1.191792e+003,1.202931e-001
1.193721e+003,1.214918e-001
1.195649e+003,1.227087e-001
1.197578e+003,1.237501e-001
1.199506e+003,1.245786e-001
1.201435e+003,1.252565e-001
1.203363e+003,1.262852e-001
1.205292e+003,1.274423e-001
1.207220e+003,1.275850e-001
1.209149e+003,1.267645e-001
1.211077e+003,1.263109e-001
1.213006e+003,1.259848e-001
1.214934e+003,1.251757e-001
1.216863e+003,1.240049e-001
1.218791e+003,1.228872e-001
1.220719e+003,1.224290e-001
1.222648e+003,1.217269e-001
1.224576e+003,1.210008e-001
1.226505e+003,1.211115e-001
1.228433e+003,1.214454e-001
1.230362e+003,1.218311e-001
1.232290e+003,1.221060e-001
1.234219e+003,1.215511e-001
1.236147e+003,1.204702e-001
1.238076e+003,1.189110e-001
1.240004e+003,1.173179e-001
1.241933e+003,1.157312e-001
1.243861e+003,1.141920e-001
1.245790e+003,1.133181e-001
1.247718e+003,1.125836e-001
1.249646e+003,1.122212e-001
1.251575e+003,1.126121e-001
1.253503e+003,1.129830e-001
1.255432e+003,1.131722e-001
1.257360e+003,1.139575e-001
1.259289e+003,1.149577e-001
1.261217e+003,1.155050e-001
1.263146e+003,1.162966e-001
1.265074e+003,1.174308e-001
1.267003e+003,1.187152e-001
1.268931e+003,1.196059e-001
1.270860e+003,1.190484e-001
1.272788e+003,1.170112e-001
1.274717e+003,1.143743e-001
1.276645e+003,1.114253e-001
1.278573e+003,1.081764e-001
1.280502e+003,1.050126e-001
1.282430e+003,1.016233e-001
1.284359e+003,9.827899e-002
1.286287e+003,9.532475e-002
1.288216e+003,9.244987e-002
1.290144e+003,8.978520e-002
1.292073e+003,8.732013e-002
1.294001e+003,8.492908e-002
1.295930e+003,8.270174e-002
1.297858e+003,8.067475e-002
1.299787e+003,7.855720e-002
1.301715e+003,7.658329e-002
1.303644e+003,7.541335e-002
1.305572e+003,7.440748e-002
1.307500e+003,7.286470e-002
1.309429e+003,7.166251e-002
1.311357e+003,7.085945e-002
1.313286e+003,7.022182e-002
1.315214e+003,6.983612e-002
1.317143e+003,6.914026e-002
1.319071e+003,6.859908e-002
1.321000e+003,6.825790e-002
1.322928e+003,6.768180e-002
1.324857e+003,6.754734e-002
1.326785e+003,6.766112e-002
1.328714e+003,6.743649e-002
1.330642e+003,6.714943e-002
1.332571e+003,6.705298e-002
1.334499e+003,6.718521e-002
1.336427e+003,6.698525e-002
1.338356e+003,6.693086e-002
1.340284e+003,6.719267e-002
1.342213e+003,6.772703e-002
1.344141e+003,6.843327e-002
1.346070e+003,6.936714e-002
1.347998e+003,7.024569e-002
1.349927e+003,7.121955e-002
1.351855e+003,7.268785e-002
1.353784e+003,7.404257e-002
1.355712e+003,7.501789e-002
1.357641e+003,7.564191e-002
1.359569e+003,7.605613e-002
1.361498e+003,7.609280e-002
1.363426e+003,7.562956e-002
1.365354e+003,7.501482e-002
1.367283e+003,7.484961e-002
1.369211e+003,7.473979e-002
1.371140e+003,7.431778e-002
1.373068e+003,7.405824e-002
1.374997e+003,7.373230e-002
1.376925e+003,7.310263e-002
1.378854e+003,7.208144e-002
1.380782e+003,7.081616e-002
1.382711e+003,6.958550e-002
1.384639e+003,6.814849e-002
1.386568e+003,6.665302e-002
1.388496e+003,6.528477e-002
1.390425e+003,6.427017e-002
1.392353e+003,6.367558e-002
1.394281e+003,6.307710e-002
1.396210e+003,6.267764e-002
1.398138e+003,6.250423e-002
1.400067e+003,6.198921e-002
1.401995e+003,6.205098e-002
1.403924e+003,6.240981e-002
1.405852e+003,6.292483e-002
1.407781e+003,6.334595e-002
1.409709e+003,6.375973e-002
1.411638e+003,6.433203e-002
1.413566e+003,6.510424e-002
1.415495e+003,6.573956e-002
1.417423e+003,6.682925e-002
1.419352e+003,6.832820e-002
1.421280e+003,7.003167e-002
1.423208e+003,7.197818e-002
1.425137e+003,7.367498e-002
1.427065e+003,7.506878e-002
1.428994e+003,7.628396e-002
1.430922e+003,7.664234e-002
1.432851e+003,7.604089e-002
1.434779e+003,7.518289e-002
1.436708e+003,7.431602e-002
1.438636e+003,7.364451e-002
1.440565e+003,7.384100e-002
1.442493e+003,7.459896e-002
1.444422e+003,7.590722e-002
1.446350e+003,7.733113e-002
1.448279e+003,7.832995e-002
1.450207e+003,7.916704e-002
1.452135e+003,7.935426e-002
1.454064e+003,7.863260e-002
1.455992e+003,7.741468e-002
1.457921e+003,7.637727e-002
1.459849e+003,7.623270e-002
1.461778e+003,7.626133e-002
1.463706e+003,7.529850e-002
1.465635e+003,7.287371e-002
1.467563e+003,6.886582e-002
1.469492e+003,6.385126e-002
1.471420e+003,5.941993e-002
1.473349e+003,5.525098e-002
1.475277e+003,5.174111e-002
1.477206e+003,4.935992e-002
1.479134e+003,4.780132e-002
1.481063e+003,4.667273e-002
1.482991e+003,4.582803e-002
1.484919e+003,4.538659e-002
1.486848e+003,4.540137e-002
1.488776e+003,4.562177e-002
1.490705e+003,4.643753e-002
1.492633e+003,4.774070e-002
1.494562e+003,4.931207e-002
1.496490e+003,5.142768e-002
1.498419e+003,5.432088e-002
1.500347e+003,5.765067e-002
1.502276e+003,6.125624e-002
1.504204e+003,6.525219e-002
1.506133e+003,6.993754e-002
1.508061e+003,7.622927e-002
1.509990e+003,8.366732e-002
1.511918e+003,8.946829e-002
1.513846e+003,9.130874e-002
1.515775e+003,8.736818e-002
1.517703e+003,7.788070e-002
1.519632e+003,6.602978e-002
1.521560e+003,5.512505e-002
1.523489e+003,4.679955e-002
1.525417e+003,4.024008e-002
1.527346e+003,3.485899e-002
1.529274e+003,3.092229e-002
1.531203e+003,2.826898e-002
1.533131e+003,2.686971e-002
1.535060e+003,2.619135e-002
1.536988e+003,2.579543e-002
1.538917e+003,2.592213e-002
1.540845e+003,2.643986e-002
1.542773e+003,2.665271e-002
1.544702e+003,2.652776e-002
1.546630e+003,2.638204e-002
1.548559e+003,2.618189e-002
1.550487e+003,2.624471e-002
1.552416e+003,2.676962e-002
1.554344e+003,2.763511e-002
1.556273e+003,2.865305e-002
1.558201e+003,2.946815e-002
1.560130e+003,3.046246e-002
1.562058e+003,3.155240e-002
1.563987e+003,3.269301e-002
1.565915e+003,3.384634e-002
1.567844e+003,3.518210e-002
1.569772e+003,3.676139e-002
1.571700e+003,3.844469e-002
1.573629e+003,4.041719e-002
1.575557e+003,4.250570e-002
1.577486e+003,4.434291e-002
1.579414e+003,4.601355e-002
1.581343e+003,4.779178e-002
1.583271e+003,4.944728e-002
1.585200e+003,5.083566e-002
1.587128e+003,5.225350e-002
1.589057e+003,5.385121e-002
1.590985e+003,5.549974e-002
1.592914e+003,5.699721e-002
1.594842e+003,5.834308e-002
1.596771e+003,5.951028e-002
1.598699e+003,6.037610e-002
1.600627e+003,6.099829e-002
1.602556e+003,6.103928e-002
1.604484e+003,6.065235e-002
1.606413e+003,6.016190e-002
1.608341e+003,5.928887e-002
1.610270e+003,5.790202e-002
1.612198e+003,5.644947e-002
1.614127e+003,5.455698e-002
1.616055e+003,5.205865e-002
1.617984e+003,4.943340e-002
1.619912e+003,4.710545e-002
1.621841e+003,4.541564e-002
1.623769e+003,4.373133e-002
1.625698e+003,4.235167e-002
1.627626e+003,4.146823e-002
1.629554e+003,4.045806e-002
1.631483e+003,3.969012e-002
1.633411e+003,3.948613e-002
1.635340e+003,3.934282e-002
1.637268e+003,3.912294e-002
1.639197e+003,3.918436e-002
1.641125e+003,3.928380e-002
1.643054e+003,3.929512e-002
1.644982e+003,3.947209e-002
1.646911e+003,3.984542e-002
1.648839e+003,4.001549e-002
1.650768e+003,4.027775e-002
1.652696e+003,4.099859e-002
1.654625e+003,4.155434e-002
1.656553e+003,4.196479e-002
1.658481e+003,4.208659e-002
1.660410e+003,4.247025e-002
1.662338e+003,4.333527e-002
1.664267e+003,4.391143e-002
1.666195e+003,4.439587e-002
1.668124e+003,4.515174e-002
1.670052e+003,4.612293e-002
1.671981e+003,4.714253e-002
1.673909e+003,4.801355e-002
1.675838e+003,4.878146e-002
1.677766e+003,4.993436e-002
1.679695e+003,5.088446e-002
1.681623e+003,5.186087e-002
1.683552e+003,5.344834e-002
1.685480e+003,5.521810e-002
1.687408e+003,5.696540e-002
1.689337e+003,5.897299e-002
1.691265e+003,6.079179e-002
1.693194e+003,6.241214e-002
1.695122e+003,6.382950e-002
1.697051e+003,6.481056e-002
1.698979e+003,6.575333e-002
1.700908e+003,6.639095e-002
1.702836e+003,6.647335e-002
1.704765e+003,6.629726e-002
1.706693e+003,6.604443e-002
1.708622e+003,6.563341e-002
1.710550e+003,6.484134e-002
1.712479e+003,6.370424e-002
1.714407e+003,6.218864e-002
1.716335e+003,6.042149e-002
1.718264e+003,5.882811e-002
1.720192e+003,5.727540e-002
1.722121e+003,5.534299e-002
1.724049e+003,5.329049e-002
1.725978e+003,5.180454e-002
1.727906e+003,5.049917e-002
1.729835e+003,4.901686e-002
1.731763e+003,4.752599e-002
1.733692e+003,4.629485e-002
1.735620e+003,4.509855e-002
1.737549e+003,4.391371e-002
1.739477e+003,4.256044e-002
1.741406e+003,4.111721e-002
1.743334e+003,3.955556e-002
1.745262e+003,3.806992e-002
1.747191e+003,3.652688e-002
1.749119e+003,3.494036e-002
1.751048e+003,3.366366e-002
1.752976e+003,3.276465e-002
1.754905e+003,3.163250e-002
1.756833e+003,3.036402e-002
1.758762e+003,2.915593e-002
1.760690e+003,2.813279e-002
1.762619e+003,2.705996e-002
1.764547e+003,2.596192e-002
1.766476e+003,2.482794e-002
1.768404e+003,2.371316e-002
1.770333e+003,2.271873e-002
1.772261e+003,2.165814e-002
1.774189e+003,2.066652e-002
1.776118e+003,1.975702e-002
1.778046e+003,1.892247e-002
1.779975e+003,1.807329e-002
1.781903e+003,1.723118e-002
1.783832e+003,1.637102e-002
1.785760e+003,1.543664e-002
1.787689e+003,1.467025e-002
1.789617e+003,1.414897e-002
1.791546e+003,1.373562e-002
1.793474e+003,1.326089e-002
1.795403e+003,1.258485e-002
1.797331e+003,1.180910e-002
1.799260e+003,1.138834e-002
1.801188e+003,1.101598e-002
1.803116e+003,1.043495e-002
1.805045e+003,9.994463e-003
1.806973e+003,9.687084e-003
1.808902e+003,9.430068e-003
1.810830e+003,9.320472e-003
1.812759e+003,9.279682e-003
1.814687e+003,9.049328e-003
1.816616e+003,8.731157e-003
1.818544e+003,8.551070e-003
1.820473e+003,8.407678e-003
1.822401e+003,8.284560e-003
1.824330e+003,8.204257e-003
1.826258e+003,8.112120e-003
1.828187e+003,8.096422e-003
1.830115e+003,8.179170e-003
1.832043e+003,8.356703e-003
1.833972e+003,8.476767e-003
1.835900e+003,8.312964e-003
1.837829e+003,8.114685e-003
1.839757e+003,8.106584e-003
1.841686e+003,8.078598e-003
1.843614e+003,8.100912e-003
1.845543e+003,8.278177e-003
1.847471e+003,8.274935e-003
1.849400e+003,8.270950e-003
1.851328e+003,8.472307e-003
1.853257e+003,8.686871e-003
1.855185e+003,8.657024e-003
1.857114e+003,8.566852e-003
1.859042e+003,8.457711e-003
1.860970e+003,8.339173e-003
1.862899e+003,8.266931e-003
1.864827e+003,8.364574e-003
1.866756e+003,8.457711e-003
1.868684e+003,8.378794e-003
1.870613e+003,8.554484e-003
1.872541e+003,8.747993e-003
1.874470e+003,8.573915e-003
1.876398e+003,8.394840e-003
1.878327e+003,8.479537e-003
1.880255e+003,8.730007e-003
1.882183e+003,8.769394e-003
1.884112e+003,8.534614e-003
1.886040e+003,8.482578e-003
1.887969e+003,8.534648e-003
1.889897e+003,8.524544e-003
1.891826e+003,8.512210e-003
1.893754e+003,8.402509e-003
1.895683e+003,8.472982e-003
1.897611e+003,8.593381e-003
1.899540e+003,8.615316e-003
1.901468e+003,8.610854e-003
1.903397e+003,8.640665e-003
1.905325e+003,8.437406e-003
1.907254e+003,8.380247e-003
1.909182e+003,8.506939e-003
1.911110e+003,8.798708e-003
1.913039e+003,8.796780e-003
1.914967e+003,8.450818e-003
1.916896e+003,8.356568e-003
1.918824e+003,8.432304e-003
1.920753e+003,8.478422e-003
1.922681e+003,8.438453e-003
1.924610e+003,8.523699e-003
1.926538e+003,8.752117e-003
1.928467e+003,8.926638e-003
1.930395e+003,8.881691e-003
1.932324e+003,8.725003e-003
1.934252e+003,8.809494e-003
1.936181e+003,8.969155e-003
1.938109e+003,8.939795e-003
1.940037e+003,8.700055e-003
1.941966e+003,8.560465e-003
1.943894e+003,8.618999e-003
1.945823e+003,8.651819e-003
1.947751e+003,8.823459e-003
1.949680e+003,8.942264e-003
1.951608e+003,8.954407e-003
1.953537e+003,8.966584e-003
1.955465e+003,8.858593e-003
1.957394e+003,8.783222e-003
1.959322e+003,8.771152e-003
1.961251e+003,8.739304e-003
1.963179e+003,8.754991e-003
1.965108e+003,8.705869e-003
1.967036e+003,8.800094e-003
1.968964e+003,8.831203e-003
1.970893e+003,8.903978e-003
1.972821e+003,8.890145e-003
1.974750e+003,8.912568e-003
1.976678e+003,9.042968e-003
1.978607e+003,8.966347e-003
1.980535e+003,8.765979e-003
1.982464e+003,8.775649e-003
1.984392e+003,8.831203e-003
1.986321e+003,8.838574e-003
1.988249e+003,8.653678e-003
1.990178e+003,8.679536e-003
1.992106e+003,8.819097e-003
1.994035e+003,8.989958e-003
1.995963e+003,9.020674e-003
1.997891e+003,9.173035e-003
1.999820e+003,9.316173e-003
2.001748e+003,9.125389e-003
2.003677e+003,9.087188e-003
2.005605e+003,9.150294e-003
2.007534e+003,9.218215e-003
2.009462e+003,9.203121e-003
2.011391e+003,9.110602e-003
2.013319e+003,9.004402e-003
2.015248e+003,9.173474e-003
2.017176e+003,9.373286e-003
2.019105e+003,9.197401e-003
2.021033e+003,9.002846e-003
2.022962e+003,9.142037e-003
2.024890e+003,9.267970e-003
2.026818e+003,9.202579e-003
2.028747e+003,9.221228e-003
2.030675e+003,9.345694e-003
2.032604e+003,9.413747e-003
2.034532e+003,9.370849e-003
2.036461e+003,9.279784e-003
2.038389e+003,9.200785e-003
2.040318e+003,9.137909e-003
2.042246e+003,9.301583e-003
2.044175e+003,9.394752e-003
2.046103e+003,9.129551e-003
2.048032e+003,9.210804e-003
2.049960e+003,9.440023e-003
2.051889e+003,9.514594e-003
2.053817e+003,9.536744e-003
2.055746e+003,9.570276e-003
2.057674e+003,9.428984e-003
2.059603e+003,9.382496e-003
2.061531e+003,9.395801e-003
2.063459e+003,9.330493e-003
2.065388e+003,9.336757e-003
2.067316e+003,9.427664e-003
2.069245e+003,9.472702e-003
2.071173e+003,9.335842e-003
2.073102e+003,9.100688e-003
2.075030e+003,9.104376e-003
2.076959e+003,9.311467e-003
2.078887e+003,9.331339e-003
2.080816e+003,9.131750e-003
2.082744e+003,9.071928e-003
2.084673e+003,9.320811e-003
2.086601e+003,9.242787e-003
2.088530e+003,9.035694e-003
2.090458e+003,8.865864e-003
2.092386e+003,8.805741e-003
2.094315e+003,9.063808e-003
2.096243e+003,9.196081e-003
2.098172e+003,9.145895e-003
2.100100e+003,9.138518e-003
2.102029e+003,9.186944e-003
2.103957e+003,9.260558e-003
2.105886e+003,9.262825e-003
2.107814e+003,9.261200e-003
2.109743e+003,9.104715e-003
2.111671e+003,9.060832e-003
2.113600e+003,9.192020e-003
2.115528e+003,9.272404e-003
2.117457e+003,9.193678e-003
2.119385e+003,8.984377e-003
2.121313e+003,9.037995e-003
2.123242e+003,9.050175e-003
2.125170e+003,9.110670e-003
2.127099e+003,9.069154e-003
2.129027e+003,9.104918e-003
2.130956e+003,9.256495e-003
2.132884e+003,9.260726e-003
2.134813e+003,9.227286e-003
2.136741e+003,9.297893e-003
2.138670e+003,9.215203e-003
2.140598e+003,8.978795e-003
2.142527e+003,9.027846e-003
2.144455e+003,8.928397e-003
2.146384e+003,8.934485e-003
2.148312e+003,9.026493e-003
2.150240e+003,9.063504e-003
2.152169e+003,9.008868e-003
2.154097e+003,9.098657e-003
2.156026e+003,9.273284e-003
2.157954e+003,9.083973e-003
2.159883e+003,9.002373e-003
2.161811e+003,9.244276e-003
2.163740e+003,9.291902e-003
2.165668e+003,9.144507e-003
2.167597e+003,9.042089e-003
2.169525e+003,9.226033e-003
2.171454e+003,9.274029e-003
2.173382e+003,9.231686e-003
2.175311e+003,9.404334e-003
2.177239e+003,9.530072e-003
2.179167e+003,9.341936e-003
2.181096e+003,9.153136e-003
2.183024e+003,9.099368e-003
2.184953e+003,9.175979e-003
2.186881e+003,9.423126e-003
2.188810e+003,9.537795e-003
2.190738e+003,9.465421e-003
2.192667e+003,9.540572e-003
2.194595e+003,9.641448e-003
2.196524e+003,9.517879e-003
2.198452e+003,9.375927e-003
2.200381e+003,9.337331e-003
2.202309e+003,9.233141e-003
2.204238e+003,9.411614e-003
2.206166e+003,9.620681e-003
2.208094e+003,9.491565e-003
2.210023e+003,9.379888e-003
2.211951e+003,9.446119e-003
2.213880e+003,9.439041e-003
2.215808e+003,9.538641e-003
2.217737e+003,9.527430e-003
2.219665e+003,9.164575e-003
2.221594e+003,8.968411e-003
2.223522e+003,9.192427e-003
2.225451e+003,9.520792e-003
2.227379e+003,9.689795e-003
2.229308e+003,9.580100e-003
2.231236e+003,9.769457e-003
2.233165e+003,9.857067e-003
2.235093e+003,9.646564e-003
2.237021e+003,9.610113e-003
2.238950e+003,9.810125e-003
2.240878e+003,9.852965e-003
2.242807e+003,9.837069e-003
2.244735e+003,9.828426e-003
2.246664e+003,9.696367e-003
2.248592e+003,9.866760e-003
2.250521e+003,9.853711e-003
2.252449e+003,9.713241e-003
2.254378e+003,9.734215e-003
2.256306e+003,9.713784e-003
2.258235e+003,9.700671e-003
2.260163e+003,9.856083e-003
2.262092e+003,9.983749e-003
2.264020e+003,9.868387e-003
2.265948e+003,9.925811e-003
2.267877e+003,1.005689e-002
2.269805e+003,9.975002e-003
2.271734e+003,9.890216e-003
2.273662e+003,9.962899e-003
2.275591e+003,9.818428e-003
2.277519e+003,9.780302e-003
2.279448e+003,9.853439e-003
2.281376e+003,1.000904e-002
2.283305e+003,1.023628e-002
2.285233e+003,1.016613e-002
2.287162e+003,1.004366e-002
2.289090e+003,1.033368e-002
2.291019e+003,1.037674e-002
2.292947e+003,1.038075e-002
2.294875e+003,1.044384e-002
2.296804e+003,1.029711e-002
2.298732e+003,1.012495e-002
2.300661e+003,1.001203e-002
2.302589e+003,1.012034e-002
2.304518e+003,1.020480e-002
2.306446e+003,1.035048e-002
2.308375e+003,1.038414e-002
2.310303e+003,1.034390e-002
2.312232e+003,1.045341e-002
2.314160e+003,1.060380e-002
2.316089e+003,1.042110e-002
2.318017e+003,1.037810e-002
2.319946e+003,1.039283e-002
2.321874e+003,1.031699e-002
2.323802e+003,1.028425e-002
2.325731e+003,1.055518e-002
2.327659e+003,1.086705e-002
2.329588e+003,1.079866e-002
2.331516e+003,1.058920e-002
2.333445e+003,1.045684e-002
2.335373e+003,1.067473e-002
2.337302e+003,1.088930e-002
2.339230e+003,1.073946e-002
2.341159e+003,1.056438e-002
2.343087e+003,1.066152e-002
2.345016e+003,1.095960e-002
2.346944e+003,1.099426e-002
2.348873e+003,1.073824e-002
2.350801e+003,1.058261e-002
2.352729e+003,1.069185e-002
2.354658e+003,1.090673e-002
2.356586e+003,1.089572e-002
2.358515e+003,1.089905e-002
2.360443e+003,1.102216e-002
2.362372e+003,1.099491e-002
2.364300e+003,1.104827e-002
2.366229e+003,1.097353e-002
2.368157e+003,1.077930e-002
2.370086e+003,1.094526e-002
2.372014e+003,1.122759e-002
2.373943e+003,1.112036e-002
2.375871e+003,1.096500e-002
2.377800e+003,1.093734e-002
2.379728e+003,1.092729e-002
2.381656e+003,1.106312e-002
2.383585e+003,1.104517e-002
2.385513e+003,1.109289e-002
2.387442e+003,1.120797e-002
2.389370e+003,1.115996e-002
2.391299e+003,1.103168e-002
2.393227e+003,1.110353e-002
2.395156e+003,1.120165e-002
2.397084e+003,1.123010e-002
2.399013e+003,1.117948e-002
2.400941e+003,1.124258e-002
2.402870e+003,1.129526e-002
2.404798e+003,1.121378e-002
2.406727e+003,1.117288e-002
2.408655e+003,1.120403e-002
2.410583e+003,1.132842e-002
2.412512e+003,1.124551e-002
2.414440e+003,1.131512e-002
2.416369e+003,1.147989e-002
2.418297e+003,1.142719e-002
2.420226e+003,1.167681e-002
2.422154e+003,1.163927e-002
2.424083e+003,1.146356e-002
2.426011e+003,1.130264e-002
2.427940e+003,1.136290e-002
2.429868e+003,1.151190e-002
2.431797e+003,1.164142e-002
2.433725e+003,1.157002e-002
2.435654e+003,1.171548e-002
2.437582e+003,1.177141e-002
2.439510e+003,1.164608e-002
2.441439e+003,1.141998e-002
2.443367e+003,1.152619e-002
2.445296e+003,1.177308e-002
2.447224e+003,1.175337e-002
2.449153e+003,1.186539e-002
2.451081e+003,1.196299e-002
2.453010e+003,1.198976e-002
2.454938e+003,1.220423e-002
2.456867e+003,1.211431e-002
2.458795e+003,1.193564e-002
2.460724e+003,1.192072e-002
2.462652e+003,1.182997e-002
2.464581e+003,1.179429e-002
2.466509e+003,1.186648e-002
2.468438e+003,1.179749e-002
2.470366e+003,1.188187e-002
2.472294e+003,1.226513e-002
2.474223e+003,1.242501e-002
2.476151e+003,1.223483e-002
2.478080e+003,1.191861e-002
2.480008e+003,1.179497e-002
2.481937e+003,1.190867e-002
2.483865e+003,1.202512e-002
2.485794e+003,1.205036e-002
2.487722e+003,1.194824e-002
2.489651e+003,1.195941e-002
2.491579e+003,1.217414e-002
2.493508e+003,1.238148e-002
2.495436e+003,1.269790e-002
2.497365e+003,1.255671e-002
2.499293e+003,1.224281e-002
2.501221e+003,1.226745e-002
2.503150e+003,1.239242e-002
2.505078e+003,1.251708e-002
2.507007e+003,1.267702e-002
2.508935e+003,1.270892e-002
2.510864e+003,1.265229e-002
2.512792e+003,1.264267e-002
2.514721e+003,1.285937e-002
2.516649e+003,1.288248e-002
2.518578e+003,1.290623e-002
2.520506e+003,1.296655e-002
2.522435e+003,1.279163e-002
2.524363e+003,1.288910e-002
2.526292e+003,1.292385e-002
2.528220e+003,1.270776e-002
2.530148e+003,1.297007e-002
2.532077e+003,1.315637e-002
2.534005e+003,1.313707e-002
2.535934e+003,1.293842e-002
2.537862e+003,1.290975e-002
2.539791e+003,1.286695e-002
2.541719e+003,1.284531e-002
2.543648e+003,1.318994e-002
2.545576e+003,1.327999e-002
2.547505e+003,1.321587e-002
2.549433e+003,1.308045e-002
2.551362e+003,1.304678e-002
2.553290e+003,1.307581e-002
2.555219e+003,1.289889e-002
2.557147e+003,1.289323e-002
2.559075e+003,1.289057e-002
2.561004e+003,1.297177e-002
2.562932e+003,1.339363e-002
2.564861e+003,1.345422e-002
2.566789e+003,1.348710e-002
2.568718e+003,1.354907e-002
2.570646e+003,1.314506e-002
2.572575e+003,1.300885e-002
2.574503e+003,1.317037e-002
2.576432e+003,1.325990e-002
2.578360e+003,1.354773e-002
2.580289e+003,1.359197e-002
2.582217e+003,1.351711e-002
2.584146e+003,1.358353e-002
2.586074e+003,1.347568e-002
2.588002e+003,1.350333e-002
2.589931e+003,1.359994e-002
2.591859e+003,1.361272e-002
2.593788e+003,1.357399e-002
2.595716e+003,1.343316e-002
2.597645e+003,1.355980e-002
2.599573e+003,1.360270e-002
2.601502e+003,1.337640e-002
2.603430e+003,1.330848e-002
2.605359e+003,1.359751e-002
2.607287e+003,1.384332e-002
2.609216e+003,1.386361e-002
2.611144e+003,1.369872e-002
2.613073e+003,1.377638e-002
2.615001e+003,1.378931e-002
2.616929e+003,1.381746e-002
2.618858e+003,1.385457e-002
2.620786e+003,1.371852e-002
2.622715e+003,1.360089e-002
2.624643e+003,1.357618e-002
2.626572e+003,1.355296e-002
2.628500e+003,1.368429e-002
2.630429e+003,1.401258e-002
2.632357e+003,1.399584e-002
2.634286e+003,1.384766e-002
2.636214e+003,1.393018e-002
2.638143e+003,1.416526e-002
2.640071e+003,1.426208e-002
2.642000e+003,1.393887e-002
2.643928e+003,1.379324e-002
2.645856e+003,1.395868e-002
2.647785e+003,1.418186e-002
2.649713e+003,1.420371e-002
2.651642e+003,1.430084e-002
2.653570e+003,1.439598e-002
2.655499e+003,1.433447e-002
2.657427e+003,1.414031e-002
2.659356e+003,1.409434e-002
2.661284e+003,1.420846e-002
2.663213e+003,1.428232e-002
2.665141e+003,1.431122e-002
2.667070e+003,1.416167e-002
2.668998e+003,1.404276e-002
2.670927e+003,1.437235e-002
2.672855e+003,1.444082e-002
2.674783e+003,1.428468e-002
2.676712e+003,1.414955e-002
2.678640e+003,1.408975e-002
2.680569e+003,1.427544e-002
2.682497e+003,1.449861e-002
2.684426e+003,1.465465e-002
2.686354e+003,1.469801e-002
2.688283e+003,1.453595e-002
2.690211e+003,1.449926e-002
2.692140e+003,1.428876e-002
2.694068e+003,1.411083e-002
2.695997e+003,1.422250e-002
2.697925e+003,1.426123e-002
2.699854e+003,1.397822e-002
2.701782e+003,1.381127e-002
2.703710e+003,1.400252e-002
2.705639e+003,1.437899e-002
2.707567e+003,1.477109e-002
2.709496e+003,1.500501e-002
2.711424e+003,1.492918e-002
2.713353e+003,1.485995e-002
2.715281e+003,1.504449e-002
2.717210e+003,1.531999e-002
2.719138e+003,1.513852e-002
2.721067e+003,1.497610e-002
2.722995e+003,1.512730e-002
2.724924e+003,1.516844e-002
2.726852e+003,1.485340e-002
2.728781e+003,1.474137e-002
2.730709e+003,1.502309e-002
2.732637e+003,1.500590e-002
2.734566e+003,1.495514e-002
2.736494e+003,1.537093e-002
2.738423e+003,1.569799e-002
2.740351e+003,1.543090e-002
2.742280e+003,1.503204e-002
2.744208e+003,1.511228e-002
2.746137e+003,1.533159e-002
2.748065e+003,1.513567e-002
2.749994e+003,1.512710e-002
2.751922e+003,1.528004e-002
2.753851e+003,1.518361e-002
2.755779e+003,1.524421e-002
2.757708e+003,1.526837e-002
2.759636e+003,1.541336e-002
2.761564e+003,1.552577e-002
2.763493e+003,1.535291e-002
2.765421e+003,1.521572e-002
2.767350e+003,1.512785e-002
2.769278e+003,1.514216e-002
2.771207e+003,1.530540e-002
2.773135e+003,1.535339e-002
2.775064e+003,1.536077e-002
2.776992e+003,1.568830e-002
2.778921e+003,1.603853e-002
2.780849e+003,1.611428e-002
2.782778e+003,1.612948e-002
2.784706e+003,1.634958e-002
2.786635e+003,1.630365e-002
2.788563e+003,1.631225e-002
2.790491e+003,1.645883e-002
2.792420e+003,1.655682e-002
2.794348e+003,1.636517e-002
2.796277e+003,1.640085e-002
2.798205e+003,1.667979e-002
2.800134e+003,1.710385e-002
2.802062e+003,1.718157e-002
2.803991e+003,1.710264e-002
2.805919e+003,1.750441e-002
2.807848e+003,1.796077e-002
2.809776e+003,1.795825e-002
2.811705e+003,1.786750e-002
2.813633e+003,1.806763e-002
2.815562e+003,1.849729e-002
2.817490e+003,1.888997e-002
2.819418e+003,1.889655e-002
2.821347e+003,1.906536e-002
2.823275e+003,1.942141e-002
2.825204e+003,1.989512e-002
2.827132e+003,2.057320e-002
2.829061e+003,2.145284e-002
2.830989e+003,2.207757e-002
2.832918e+003,2.261655e-002
2.834846e+003,2.296037e-002
2.836775e+003,2.343799e-002
2.838703e+003,2.442025e-002
2.840632e+003,2.509915e-002
2.842560e+003,2.590810e-002
2.844489e+003,2.709392e-002
2.846417e+003,2.828709e-002
2.848345e+003,2.907405e-002
2.850274e+003,2.907561e-002
2.852202e+003,2.856273e-002
2.854131e+003,2.836903e-002
2.856059e+003,2.837798e-002
2.857988e+003,2.787441e-002
2.859916e+003,2.747010e-002
2.861845e+003,2.729005e-002
2.863773e+003,2.733020e-002
2.865702e+003,2.745623e-002
2.867630e+003,2.802452e-002
2.869558e+003,2.869308e-002
2.871487e+003,2.907862e-002
2.873415e+003,2.904521e-002
2.875344e+003,2.882655e-002
2.877272e+003,2.867573e-002
2.879201e+003,2.867173e-002
2.881129e+003,2.883094e-002
2.883058e+003,2.877050e-002
2.884986e+003,2.919126e-002
2.886915e+003,2.957902e-002
2.888843e+003,2.954362e-002
2.890771e+003,2.958948e-002
2.892700e+003,2.974625e-002
2.894628e+003,3.012821e-002
2.896557e+003,3.082862e-002
2.898485e+003,3.161030e-002
2.900414e+003,3.232071e-002
2.902342e+003,3.267840e-002
2.904271e+003,3.292610e-002
2.906199e+003,3.333675e-002
2.908128e+003,3.432881e-002
2.910056e+003,3.560905e-002
2.911985e+003,3.696414e-002
2.913913e+003,3.857442e-002
2.915842e+003,4.019807e-002
2.917770e+003,4.092944e-002
2.919698e+003,4.056049e-002
2.921627e+003,3.986391e-002
2.923555e+003,3.962641e-002
2.925484e+003,4.003195e-002
2.927412e+003,3.980460e-002
2.929341e+003,3.908769e-002
2.931269e+003,3.848893e-002
2.933198e+003,3.838018e-002
2.935126e+003,3.789439e-002
2.937055e+003,3.727647e-002
2.938983e+003,3.705322e-002
2.940912e+003,3.665380e-002
2.942840e+003,3.576060e-002
2.944769e+003,3.554338e-002
2.946697e+003,3.506886e-002
2.948625e+003,3.404834e-002
2.950554e+003,3.393511e-002
2.952482e+003,3.410661e-002
2.954411e+003,3.412557e-002
2.956339e+003,3.446011e-002
2.958268e+003,3.420182e-002
2.960196e+003,3.370609e-002
2.962125e+003,3.334197e-002
2.964053e+003,3.268737e-002
2.965982e+003,3.178859e-002
2.967910e+003,3.152803e-002
2.969839e+003,3.139992e-002
2.971767e+003,3.064177e-002
2.973696e+003,2.962669e-002
2.975624e+003,2.810680e-002
2.977552e+003,2.671356e-002
2.979481e+003,2.591461e-002
2.981409e+003,2.600708e-002
2.983338e+003,2.587909e-002
2.985266e+003,2.459971e-002
2.987195e+003,2.344484e-002
2.989123e+003,2.296927e-002
2.991052e+003,2.272369e-002
2.992980e+003,2.256591e-002
2.994909e+003,2.209852e-002
2.996837e+003,2.162540e-002
2.998766e+003,2.097878e-002
3.000694e+003,2.052588e-002
3.002623e+003,2.035035e-002
3.004551e+003,2.007880e-002
3.006479e+003,1.978265e-002
3.008408e+003,1.963966e-002
3.010336e+003,1.957920e-002
3.012265e+003,1.992152e-002
3.014193e+003,1.997220e-002
3.016122e+003,1.957660e-002
3.018050e+003,1.911352e-002
3.019979e+003,1.883751e-002
3.021907e+003,1.883225e-002
3.023836e+003,1.861898e-002
3.025764e+003,1.854280e-002
3.027693e+003,1.879779e-002
3.029621e+003,1.885478e-002
3.031550e+003,1.899128e-002
3.033478e+003,1.893355e-002
3.035406e+003,1.867840e-002
3.037335e+003,1.877804e-002
3.039263e+003,1.889350e-002
3.041192e+003,1.899827e-002
3.043120e+003,1.898983e-002
3.045049e+003,1.864727e-002
3.046977e+003,1.844014e-002
3.048906e+003,1.820626e-002
3.050834e+003,1.813647e-002
3.052763e+003,1.832735e-002
3.054691e+003,1.891977e-002
3.056620e+003,1.890842e-002
3.058548e+003,1.848581e-002
3.060477e+003,1.857198e-002
3.062405e+003,1.889233e-002
3.064333e+003,1.893798e-002
3.066262e+003,1.917250e-002
3.068190e+003,1.912568e-002
3.070119e+003,1.880236e-002
3.072047e+003,1.885686e-002
3.073976e+003,1.866713e-002
3.075904e+003,1.852385e-002
3.077833e+003,1.866969e-002
3.079761e+003,1.889022e-002
3.081690e+003,1.913046e-002
3.083618e+003,1.927654e-002
3.085547e+003,1.919743e-002
3.087475e+003,1.894414e-002
3.089404e+003,1.880589e-002
3.091332e+003,1.901977e-002
3.093260e+003,1.929777e-002
3.095189e+003,1.963508e-002
3.097117e+003,1.955022e-002
3.099046e+003,1.930106e-002
3.100974e+003,1.923594e-002
3.102903e+003,1.932077e-002
3.104831e+003,1.981323e-002
3.106760e+003,2.046794e-002
3.108688e+003,2.040189e-002
3.110617e+003,2.004038e-002
3.112545e+003,1.983640e-002
3.114474e+003,1.994480e-002
3.116402e+003,1.989620e-002
3.118331e+003,2.014279e-002
3.120259e+003,2.017406e-002
3.122188e+003,2.054641e-002
3.124116e+003,2.108166e-002
3.126044e+003,2.098473e-002
3.127973e+003,2.121698e-002
3.129901e+003,2.126138e-002
3.131830e+003,2.108566e-002
3.133758e+003,2.092635e-002
3.135687e+003,2.087628e-002
3.137615e+003,2.079543e-002
3.139544e+003,2.120630e-002
3.141472e+003,2.155655e-002
3.143401e+003,2.183088e-002
3.145329e+003,2.216846e-002
3.147258e+003,2.158650e-002
3.149186e+003,2.139373e-002
3.151115e+003,2.198314e-002
3.153043e+003,2.237082e-002
3.154971e+003,2.233367e-002
3.156900e+003,2.239385e-002
3.158828e+003,2.247036e-002
3.160757e+003,2.251070e-002
3.162685e+003,2.220169e-002
3.164614e+003,2.234068e-002
3.166542e+003,2.277533e-002
3.168471e+003,2.288677e-002
3.170399e+003,2.308216e-002
3.172328e+003,2.312105e-002
3.174256e+003,2.312608e-002
3.176185e+003,2.392723e-002
3.178113e+003,2.431497e-002
3.180042e+003,2.406506e-002
3.181970e+003,2.404159e-002
3.183898e+003,2.425632e-002
3.185827e+003,2.429181e-002
3.187755e+003,2.438398e-002
3.189684e+003,2.451806e-002
3.191612e+003,2.460354e-002
3.193541e+003,2.483429e-002
3.195469e+003,2.475294e-002
3.197398e+003,2.497451e-002
3.199326e+003,2.497658e-002
3.201255e+003,2.530264e-002
3.203183e+003,2.583351e-002
3.205112e+003,2.647053e-002
3.207040e+003,2.643426e-002
3.208969e+003,2.652202e-002
3.210897e+003,2.667821e-002
3.212825e+003,2.667931e-002
3.214754e+003,2.676747e-002
3.216682e+003,2.685547e-002
3.218611e+003,2.671525e-002
3.220539e+003,2.688737e-002
3.222468e+003,2.685068e-002
3.224396e+003,2.728172e-002
3.226325e+003,2.758508e-002
3.228253e+003,2.814307e-002
3.230182e+003,2.856510e-002
3.232110e+003,2.838704e-002
3.234039e+003,2.822648e-002
3.235967e+003,2.872469e-002
3.237896e+003,2.880513e-002
3.239824e+003,2.866777e-002
3.241752e+003,2.876483e-002
3.243681e+003,2.892666e-002
3.245609e+003,2.912709e-002
3.247538e+003,2.966940e-002
3.249466e+003,2.989832e-002
3.251395e+003,2.997883e-002
3.253323e+003,3.016025e-002
3.255252e+003,3.052388e-002
3.257180e+003,3.060629e-002
3.259109e+003,3.070773e-002
3.261037e+003,3.085466e-002
3.262966e+003,3.069667e-002
3.264894e+003,3.074618e-002
3.266823e+003,3.086131e-002
3.268751e+003,3.060952e-002
3.270679e+003,3.050639e-002
3.272608e+003,3.060973e-002
3.274536e+003,3.119171e-002
3.276465e+003,3.174663e-002
3.278393e+003,3.207716e-002
3.280322e+003,3.177404e-002
3.282250e+003,3.189180e-002
3.284179e+003,3.202787e-002
3.286107e+003,3.184242e-002
3.288036e+003,3.224936e-002
3.289964e+003,3.243244e-002
3.291893e+003,3.235833e-002
3.293821e+003,3.238460e-002
3.295750e+003,3.306850e-002
3.297678e+003,3.320214e-002
3.299606e+003,3.308452e-002
3.301535e+003,3.316794e-002
3.303463e+003,3.273370e-002
3.305392e+003,3.301422e-002
3.307320e+003,3.402504e-002
3.309249e+003,3.397782e-002
3.311177e+003,3.410657e-002
3.313106e+003,3.450007e-002
3.315034e+003,3.458833e-002
3.316963e+003,3.385418e-002
3.318891e+003,3.374921e-002
3.320820e+003,3.453344e-002
3.322748e+003,3.475230e-002
3.324677e+003,3.450201e-002
3.326605e+003,3.462917e-002
3.328533e+003,3.434229e-002
3.330462e+003,3.397531e-002
3.332390e+003,3.418310e-002
3.334319e+003,3.449254e-002
3.336247e+003,3.491967e-002
3.338176e+003,3.505507e-002
3.340104e+003,3.530338e-002
3.342033e+003,3.594293e-002
3.343961e+003,3.598883e-002
3.345890e+003,3.576358e-002
3.347818e+003,3.553256e-002
3.349747e+003,3.521900e-002
3.351675e+003,3.562861e-002
3.353604e+003,3.576545e-002
3.355532e+003,3.614407e-002
3.357460e+003,3.691706e-002
3.359389e+003,3.681112e-002
3.361317e+003,3.618559e-002
3.363246e+003,3.602940e-002
3.365174e+003,3.591115e-002
3.367103e+003,3.572886e-002
3.369031e+003,3.556643e-002
3.370960e+003,3.502486e-002
3.372888e+003,3.450875e-002
3.374817e+003,3.454596e-002
3.376745e+003,3.575610e-002
3.378674e+003,3.643005e-002
3.380602e+003,3.576592e-002
3.382531e+003,3.518975e-002
3.384459e+003,3.440642e-002
3.386387e+003,3.412496e-002
3.388316e+003,3.518414e-002
3.390244e+003,3.588286e-002
3.392173e+003,3.568692e-002
3.394101e+003,3.548124e-002
3.396030e+003,3.504552e-002
3.397958e+003,3.436589e-002
3.399887e+003,3.428413e-002
3.401815e+003,3.487766e-002
3.403744e+003,3.470001e-002
3.405672e+003,3.444411e-002
3.407601e+003,3.501340e-002
3.409529e+003,3.501703e-002
3.411458e+003,3.464022e-002
3.413386e+003,3.522557e-002
3.415314e+003,3.533019e-002
3.417243e+003,3.426854e-002
3.419171e+003,3.407450e-002
3.421100e+003,3.429385e-002
3.423028e+003,3.388273e-002
3.424957e+003,3.378910e-002
3.426885e+003,3.387675e-002
3.428814e+003,3.337475e-002
3.430742e+003,3.319248e-002
3.432671e+003,3.268898e-002
3.434599e+003,3.173134e-002
3.436528e+003,3.218270e-002
3.438456e+003,3.224169e-002
3.440385e+003,3.198595e-002
3.442313e+003,3.202565e-002
3.444241e+003,3.186192e-002
3.446170e+003,3.148688e-002
3.448098e+003,3.098531e-002
3.450027e+003,3.052420e-002
3.451955e+003,3.006710e-002
3.453884e+003,2.911136e-002
3.455812e+003,2.878654e-002
3.457741e+003,2.899523e-002
3.459669e+003,2.974036e-002
3.461598e+003,2.934845e-002
3.463526e+003,2.856843e-002
3.465455e+003,2.833455e-002
3.467383e+003,2.787692e-002
3.469312e+003,2.769645e-002
3.471240e+003,2.828641e-002
3.473168e+003,2.785141e-002
3.475097e+003,2.674280e-002
3.477025e+003,2.622613e-002
3.478954e+003,2.620346e-002
3.480882e+003,2.527921e-002
3.482811e+003,2.494886e-002
3.484739e+003,2.544227e-002
3.486668e+003,2.535272e-002
3.488596e+003,2.444665e-002
3.490525e+003,2.399645e-002
3.492453e+003,2.332347e-002
3.494382e+003,2.288733e-002
3.496310e+003,2.300571e-002
3.498239e+003,2.220413e-002
3.500167e+003,2.132677e-002
3.502095e+003,2.126093e-002
3.504024e+003,2.123918e-002
3.505952e+003,2.096074e-002
3.507881e+003,2.087500e-002
3.509809e+003,2.015306e-002
3.511738e+003,1.912706e-002
3.513666e+003,1.897851e-002
3.515595e+003,1.867294e-002
3.517523e+003,1.797672e-002
3.519452e+003,1.743770e-002
3.521380e+003,1.692150e-002
3.523309e+003,1.653517e-002
3.525237e+003,1.626265e-002
3.527166e+003,1.555606e-002
3.529094e+003,1.529534e-002
3.531022e+003,1.463868e-002
3.532951e+003,1.368278e-002
3.534879e+003,1.328955e-002
3.536808e+003,1.344294e-002
3.538736e+003,1.334565e-002
3.540665e+003,1.297532e-002
3.542593e+003,1.266003e-002
3.544522e+003,1.168975e-002
3.546450e+003,1.131981e-002
3.548379e+003,1.124561e-002
3.550307e+003,1.037898e-002
3.552236e+003,9.660183e-003
3.554164e+003,9.504841e-003
3.556093e+003,9.107557e-003
3.558021e+003,8.916322e-003
3.559949e+003,8.132848e-003
3.561878e+003,7.731252e-003
3.563806e+003,8.012307e-003
3.565735e+003,7.708890e-003
3.567663e+003,7.165342e-003
3.569592e+003,6.857029e-003
3.571520e+003,6.005526e-003
3.573449e+003,6.284659e-003
3.575377e+003,6.034855e-003
3.577306e+003,5.345508e-003
3.579234e+003,5.505108e-003
3.581163e+003,6.154143e-003
3.583091e+003,5.644592e-003
3.585020e+003,3.947383e-003
3.586948e+003,3.536108e-003
3.588876e+003,4.143132e-003
3.590805e+003,4.773953e-003
3.592733e+003,5.284898e-003
3.594662e+003,4.606617e-003
3.596590e+003,4.321131e-003
3.598519e+003,4.174343e-003
3.600447e+003,4.089044e-003
3.602376e+003,4.079009e-003
3.604304e+003,3.568077e-003
3.606233e+003,2.991048e-003
3.608161e+003,3.069458e-003
3.610090e+003,3.380769e-003
3.612018e+003,3.415299e-003
3.613947e+003,3.292854e-003
3.615875e+003,3.413796e-003
3.617803e+003,3.442216e-003
3.619732e+003,3.471307e-003
3.621660e+003,3.332719e-003
3.623589e+003,3.519906e-003
3.625517e+003,4.076033e-003
3.627446e+003,4.368721e-003
3.629374e+003,4.305369e-003
3.631303e+003,4.140121e-003
3.633231e+003,3.852902e-003
3.635160e+003,4.347000e-003
3.637088e+003,4.497897e-003
3.639017e+003,4.041551e-003
3.640945e+003,4.264645e-003
3.642874e+003,4.911460e-003
3.644802e+003,4.966018e-003
3.646730e+003,4.920072e-003
3.648659e+003,4.667535e-003
3.650587e+003,4.726184e-003
3.652516e+003,5.241801e-003
3.654444e+003,5.730802e-003
3.656373e+003,5.947376e-003
3.658301e+003,6.230606e-003
3.660230e+003,5.805074e-003
3.662158e+003,5.729056e-003
3.664087e+003,5.992558e-003
3.666015e+003,6.206506e-003
3.667944e+003,6.769316e-003
3.669872e+003,6.696797e-003
3.671801e+003,6.384311e-003
3.673729e+003,6.698917e-003
3.675657e+003,6.999979e-003
3.677586e+003,6.739096e-003
3.679514e+003,6.757067e-003
3.681443e+003,7.449806e-003
3.683371e+003,7.581790e-003
3.685300e+003,7.586308e-003
3.687228e+003,7.882857e-003
3.689157e+003,7.692398e-003
3.691085e+003,7.420178e-003
3.693014e+003,7.347112e-003
3.694942e+003,7.572417e-003
3.696871e+003,7.648859e-003
3.698799e+003,7.554513e-003
3.700728e+003,7.825029e-003
3.702656e+003,8.337417e-003
3.704584e+003,8.283817e-003
3.706513e+003,8.177550e-003
3.708441e+003,8.297596e-003
3.710370e+003,8.452204e-003
3.712298e+003,8.474469e-003
3.714227e+003,8.199226e-003
3.716155e+003,8.409062e-003
3.718084e+003,8.943719e-003
3.720012e+003,8.576382e-003
3.721941e+003,8.442272e-003
3.723869e+003,8.641409e-003
3.725798e+003,8.773316e-003
3.727726e+003,8.710737e-003
3.729655e+003,8.312423e-003
3.731583e+003,8.322353e-003
3.733511e+003,8.691368e-003
3.735440e+003,8.498593e-003
3.737368e+003,8.033638e-003
3.739297e+003,8.193283e-003
3.741225e+003,8.665812e-003
3.743154e+003,8.674026e-003
3.745082e+003,8.520658e-003
3.747011e+003,8.364878e-003
3.748939e+003,8.374708e-003
3.750868e+003,8.460650e-003
3.752796e+003,8.217156e-003
3.754725e+003,8.381531e-003
3.756653e+003,8.847942e-003
3.758582e+003,8.648506e-003
3.760510e+003,8.440447e-003
3.762438e+003,8.237585e-003
3.764367e+003,8.766689e-003
3.766295e+003,9.263773e-003
3.768224e+003,9.392280e-003
3.770152e+003,9.065094e-003
3.772081e+003,8.475414e-003
3.774009e+003,8.741603e-003
3.775938e+003,8.963236e-003
3.777866e+003,9.046216e-003
3.779795e+003,9.328597e-003
3.781723e+003,9.409887e-003
3.783652e+003,8.706647e-003
3.785580e+003,8.641611e-003
3.787509e+003,8.947981e-003
3.789437e+003,9.321590e-003
3.791365e+003,9.434707e-003
3.793294e+003,9.142511e-003
3.795222e+003,8.825657e-003
3.797151e+003,8.609232e-003
3.799079e+003,8.221175e-003
3.801008e+003,8.839961e-003
3.802936e+003,9.764578e-003
3.804865e+003,9.272810e-003
3.806793e+003,8.742076e-003
3.808722e+003,9.206065e-003
3.810650e+003,9.378670e-003
3.812579e+003,8.994356e-003
3.814507e+003,8.824305e-003
3.816436e+003,8.891702e-003
3.818364e+003,8.898837e-003
3.820292e+003,8.742549e-003
3.822221e+003,8.727235e-003
3.824149e+003,8.702895e-003
3.826078e+003,8.736532e-003
3.828006e+003,8.524882e-003
3.829935e+003,8.264568e-003
3.831863e+003,8.472982e-003
3.833792e+003,8.895253e-003
3.835720e+003,8.916357e-003
3.837649e+003,8.507277e-003
3.839577e+003,8.460920e-003
3.841506e+003,8.722773e-003
3.843434e+003,9.399662e-003
3.845363e+003,9.173677e-003
3.847291e+003,9.036507e-003
3.849219e+003,9.378737e-003
3.851148e+003,9.101839e-003
3.853076e+003,8.887237e-003
3.855005e+003,9.114527e-003
3.856933e+003,9.231821e-003
3.858862e+003,9.202715e-003
3.860790e+003,9.221498e-003
3.862719e+003,9.083161e-003
3.864647e+003,9.214865e-003
3.866576e+003,9.268411e-003
3.868504e+003,8.858458e-003
3.870433e+003,8.921768e-003
3.872361e+003,9.237710e-003
3.874290e+003,9.566788e-003
3.876218e+003,9.308659e-003
3.878146e+003,9.253585e-003
3.880075e+003,8.791472e-003
3.882003e+003,8.402002e-003
3.883932e+003,8.638637e-003
3.885860e+003,8.938578e-003
3.887789e+003,9.220957e-003
3.889717e+003,9.194389e-003
3.891646e+003,8.498830e-003
3.893574e+003,8.106381e-003
3.895503e+003,8.685688e-003
3.897431e+003,9.080285e-003
3.899360e+003,9.449336e-003
3.901288e+003,9.683561e-003
3.903217e+003,9.665908e-003
3.905145e+003,9.563841e-003
3.907073e+003,9.779014e-003
3.909002e+003,9.565264e-003
3.910930e+003,9.230907e-003
3.912859e+003,9.584470e-003
3.914787e+003,9.645141e-003
3.916716e+003,9.864252e-003
3.918644e+003,9.824528e-003
3.920573e+003,9.575188e-003
3.922501e+003,9.645683e-003
3.924430e+003,9.892691e-003
3.926358e+003,9.906861e-003
3.928287e+003,9.389978e-003
3.930215e+003,8.836105e-003
3.932144e+003,8.657193e-003
3.934072e+003,8.863328e-003
3.936000e+003,9.020302e-003
3.937929e+003,9.140921e-003
3.939857e+003,8.841009e-003
3.941786e+003,8.856868e-003
3.943714e+003,9.099334e-003
3.945643e+003,1.000992e-002
3.947571e+003,9.778167e-003
3.949500e+003,9.421738e-003
3.951428e+003,9.732420e-003
3.953357e+003,1.006486e-002
3.955285e+003,1.004193e-002
3.957214e+003,9.514899e-003
3.959142e+003,9.360658e-003
3.961071e+003,1.005570e-002
3.962999e+003,9.932319e-003
3.964927e+003,9.616345e-003
3.966856e+003,9.393228e-003
3.968784e+003,9.122580e-003
3.970713e+003,9.315970e-003
3.972641e+003,9.921640e-003
3.974570e+003,1.001328e-002
3.976498e+003,9.487433e-003
3.978427e+003,9.396615e-003
3.980355e+003,1.003810e-002
3.982284e+003,1.021328e-002
3.984212e+003,1.007988e-002
3.986141e+003,9.940998e-003
3.988069e+003,9.444053e-003
3.989998e+003,9.617565e-003
3.991926e+003,9.690167e-003
3.993854e+003,9.346303e-003
3.995783e+003,9.623290e-003
3.997711e+003,9.953677e-003
3.999640e+003,9.718629e-003
4.001568e+003,0.000000e+000
