3.991927e+002,0.000000e+000
4.011211e+002,0.000000e+000
4.030496e+002,0.000000e+000
4.049781e+002,0.000000e+000
4.069065e+002,0.000000e+000
4.088350e+002,0.000000e+000
4.107635e+002,0.000000e+000
4.126919e+002,0.000000e+000
4.146204e+002,0.000000e+000
4.165489e+002,0.000000e+000
4.184773e+002,0.000000e+000
4.204058e+002,0.000000e+000
4.223343e+002,0.000000e+000
4.242627e+002,0.000000e+000
4.261912e+002,0.000000e+000
4.281197e+002,0.000000e+000
4.300481e+002,0.000000e+000
4.319766e+002,0.000000e+000
4.339051e+002,0.000000e+000
4.358335e+002,0.000000e+000
4.377620e+002,0.000000e+000
4.396905e+002,0.000000e+000
4.416189e+002,0.000000e+000
4.435474e+002,0.000000e+000
4.454759e+002,0.000000e+000
4.474043e+002,0.000000e+000
4.493328e+002,0.000000e+000
4.512613e+002,0.000000e+000
4.531897e+002,0.000000e+000
4.551182e+002,0.000000e+000
4.570467e+002,0.000000e+000
4.589751e+002,0.000000e+000
4.609036e+002,0.000000e+000
4.628321e+002,0.000000e+000
4.647605e+002,0.000000e+000
4.666890e+002,0.000000e+000
4.686175e+002,0.000000e+000
4.705459e+002,0.000000e+000
4.724744e+002,0.000000e+000
4.744029e+002,0.000000e+000
4.763313e+002,0.000000e+000
4.782598e+002,0.000000e+000
4.801883e+002,0.000000e+000
4.821167e+002,0.000000e+000
4.840452e+002,0.000000e+000
4.859737e+002,0.000000e+000
4.879021e+002,0.000000e+000
4.898306e+002,0.000000e+000
4.917591e+002,0.000000e+000
4.936875e+002,0.000000e+000
4.956160e+002,0.000000e+000
4.975445e+002,0.000000e+000
4.994729e+002,0.000000e+000
5.014014e+002,0.000000e+000
5.033299e+002,0.000000e+000
5.052583e+002,0.000000e+000
5.071868e+002,0.000000e+000
5.091153e+002,0.000000e+000
5.110437e+002,0.000000e+000
5.129722e+002,0.000000e+000
5.149006e+002,0.000000e+000
5.168291e+002,0.000000e+000
5.187576e+002,0.000000e+000
5.206860e+002,0.000000e+000
5.226145e+002,0.000000e+000
5.245430e+002,0.000000e+000
5.264714e+002,0.000000e+000
5.283999e+002,0.000000e+000
5.303284e+002,0.000000e+000
5.322568e+002,0.000000e+000
5.341853e+002,0.000000e+000
5.361138e+002,0.000000e+000
5.380422e+002,0.000000e+000
5.399707e+002,0.000000e+000
5.418992e+002,0.000000e+000
5.438276e+002,0.000000e+000
5.457561e+002,0.000000e+000
5.476846e+002,0.000000e+000
5.496130e+002,0.000000e+000
5.515415e+002,0.000000e+000
5.534700e+002,0.000000e+000
5.553984e+002,0.000000e+000
5.573269e+002,0.000000e+000
5.592554e+002,0.000000e+000
5.611838e+002,0.000000e+000
5.631123e+002,0.000000e+000
5.650408e+002,0.000000e+000
5.669692e+002,0.000000e+000
5.688977e+002,0.000000e+000
5.708262e+002,0.000000e+000
5.727546e+002,0.000000e+000
5.746831e+002,0.000000e+000
5.766116e+002,0.000000e+000
5.785400e+002,0.000000e+000
5.804685e+002,0.000000e+000
5.823970e+002,0.000000e+000
5.843254e+002,0.000000e+000
5.862539e+002,0.000000e+000
5.881824e+002,0.000000e+000
5.901108e+002,0.000000e+000
5.920393e+002,0.000000e+000
5.939678e+002,0.000000e+000
5.958962e+002,0.000000e+000
5.978247e+002,0.000000e+000
5.997532e+002,0.000000e+000
6.016816e+002,0.000000e+000
6.036101e+002,0.000000e+000
6.055386e+002,0.000000e+000
6.074670e+002,0.000000e+000
6.093955e+002,0.000000e+000
6.113240e+002,0.000000e+000
6.132524e+002,0.000000e+000
6.151809e+002,0.000000e+000
6.171094e+002,0.000000e+000
6.190378e+002,0.000000e+000
6.209663e+002,0.000000e+000
6.228948e+002,0.000000e+000
6.248232e+002,0.000000e+000
6.267517e+002,0.000000e+000
6.286802e+002,0.000000e+000
6.306086e+002,0.000000e+000
6.325371e+002,0.000000e+000
6.344656e+002,0.000000e+000
6.363940e+002,0.000000e+000
6.383225e+002,0.000000e+000
6.402510e+002,0.000000e+000
6.421794e+002,0.000000e+000
6.441079e+002,0.000000e+000
6.460364e+002,0.000000e+000
6.479648e+002,0.000000e+000
6.498933e+002,1.968670e-001
6.518218e+002,1.951530e-001
6.537502e+002,1.943769e-001
6.556787e+002,1.921507e-001
6.576072e+002,1.894091e-001
6.595356e+002,1.887349e-001
6.614641e+002,1.878888e-001
6.633926e+002,1.871587e-001
6.653210e+002,1.862220e-001
6.672495e+002,1.834701e-001
6.691780e+002,1.825269e-001
6.711064e+002,1.818564e-001
6.730349e+002,1.809913e-001
6.749634e+002,1.797362e-001
6.768918e+002,1.770981e-001
6.788203e+002,1.754768e-001
6.807488e+002,1.752399e-001
6.826772e+002,1.737123e-001
6.846057e+002,1.730885e-001
6.865342e+002,1.727472e-001
6.884626e+002,1.714628e-001
6.903911e+002,1.710564e-001
6.923196e+002,1.709119e-001
6.942480e+002,1.692244e-001
6.961765e+002,1.678501e-001
6.981050e+002,1.664277e-001
7.000334e+002,1.647896e-001
7.019619e+002,1.636673e-001
7.038904e+002,1.625827e-001
7.058188e+002,1.612964e-001
7.077473e+002,1.611788e-001
7.096758e+002,1.616060e-001
7.116042e+002,1.622162e-001
7.135327e+002,1.613292e-001
7.154612e+002,1.595669e-001
7.173896e+002,1.598837e-001
7.193181e+002,1.604666e-001
7.212466e+002,1.602519e-001
7.231750e+002,1.611207e-001
7.251035e+002,1.616076e-001
7.270320e+002,1.619087e-001
7.289604e+002,1.626338e-001
7.308889e+002,1.633836e-001
7.328174e+002,1.634285e-001
7.347458e+002,1.632956e-001
7.366743e+002,1.639484e-001
7.386028e+002,1.650542e-001
7.405313e+002,1.671664e-001
7.424597e+002,1.690088e-001
7.443882e+002,1.706612e-001
7.463167e+002,1.726318e-001
7.482451e+002,1.737094e-001
7.501736e+002,1.736295e-001
7.521021e+002,1.733074e-001
7.540305e+002,1.731332e-001
7.559590e+002,1.732832e-001
7.578875e+002,1.719776e-001
7.598159e+002,1.695049e-001
7.617444e+002,1.676436e-001
7.636729e+002,1.670556e-001
7.656013e+002,1.663107e-001
7.675298e+002,1.653890e-001
7.694583e+002,1.652185e-001
7.713867e+002,1.653556e-001
7.733152e+002,1.650899e-001
7.752437e+002,1.646116e-001
7.771721e+002,1.651044e-001
7.791006e+002,1.659705e-001
7.810291e+002,1.659383e-001
7.829575e+002,1.661221e-001
7.848860e+002,1.664224e-001
7.868145e+002,1.660069e-001
7.887429e+002,1.655338e-001
7.906714e+002,1.650382e-001
7.925999e+002,1.631436e-001
7.945283e+002,1.622018e-001
7.964568e+002,1.613202e-001
7.983853e+002,1.593086e-001
8.003137e+002,1.591175e-001
8.022422e+002,1.601845e-001
8.041707e+002,1.614627e-001
8.060991e+002,1.650218e-001
8.080276e+002,1.689628e-001
8.099561e+002,1.717985e-001
8.118845e+002,1.741489e-001
8.138130e+002,1.751931e-001
8.157415e+002,1.748687e-001
8.176699e+002,1.744957e-001
8.195984e+002,1.748839e-001
8.215269e+002,1.744123e-001
8.234553e+002,1.726855e-001
8.253838e+002,1.696952e-001
8.273123e+002,1.665000e-001
8.292407e+002,1.639495e-001
8.311692e+002,1.612028e-001
8.330977e+002,1.582600e-001
8.350261e+002,1.561821e-001
8.369546e+002,1.549308e-001
8.388831e+002,1.542025e-001
8.408115e+002,1.538432e-001
8.427400e+002,1.540762e-001
8.446685e+002,1.557855e-001
8.465969e+002,1.582416e-001
8.485254e+002,1.604721e-001
8.504539e+002,1.622032e-001
8.523823e+002,1.631630e-001
8.543108e+002,1.637281e-001
8.562393e+002,1.637262e-001
8.581677e+002,1.630225e-001
8.600962e+002,1.617873e-001
8.620247e+002,1.591680e-001
8.639531e+002,1.567239e-001
8.658816e+002,1.547214e-001
8.678101e+002,1.528506e-001
8.697385e+002,1.526123e-001
8.716670e+002,1.558765e-001
8.735955e+002,1.576098e-001
8.755239e+002,1.553302e-001
8.774524e+002,1.516556e-001
8.793809e+002,1.489640e-001
8.813093e+002,1.482570e-001
8.832378e+002,1.483775e-001
8.851663e+002,1.480409e-001
8.870947e+002,1.474759e-001
8.890232e+002,1.469173e-001
8.909517e+002,1.464639e-001
8.928801e+002,1.459059e-001
8.948086e+002,1.450394e-001
8.967371e+002,1.443470e-001
8.986655e+002,1.438182e-001
9.005940e+002,1.451063e-001
9.025225e+002,1.462427e-001
9.044509e+002,1.467983e-001
9.063794e+002,1.481107e-001
9.083079e+002,1.498887e-001
9.102363e+002,1.520110e-001
9.121648e+002,1.541754e-001
9.140933e+002,1.556296e-001
9.160217e+002,1.564531e-001
9.179502e+002,1.564148e-001
9.198787e+002,1.565353e-001
9.218071e+002,1.566171e-001
9.237356e+002,1.557776e-001
9.256641e+002,1.554232e-001
9.275925e+002,1.559983e-001
9.295210e+002,1.561243e-001
9.314495e+002,1.563710e-001
9.333779e+002,1.562963e-001
9.353064e+002,1.564725e-001
9.372349e+002,1.565626e-001
9.391633e+002,1.563545e-001
9.410918e+002,1.572716e-001
9.430203e+002,1.583184e-001
9.449487e+002,1.590411e-001
9.468772e+002,1.604005e-001
9.488057e+002,1.614486e-001
9.507341e+002,1.624299e-001
9.526626e+002,1.636073e-001
9.545911e+002,1.652689e-001
9.565195e+002,1.672307e-001
9.584480e+002,1.689135e-001
9.603765e+002,1.707661e-001
9.623049e+002,1.729531e-001
9.642334e+002,1.753788e-001
9.661619e+002,1.771074e-001
9.680903e+002,1.779186e-001
9.700188e+002,1.784457e-001
9.719473e+002,1.791056e-001
9.738757e+002,1.798923e-001
9.758042e+002,1.801697e-001
9.777327e+002,1.808947e-001
9.796611e+002,1.818810e-001
9.815896e+002,1.834462e-001
9.835181e+002,1.850756e-001
9.854465e+002,1.866239e-001
9.873750e+002,1.887280e-001
9.893035e+002,1.907350e-001
9.912319e+002,1.928494e-001
9.931604e+002,1.956547e-001
9.950889e+002,1.983928e-001
9.970173e+002,2.008530e-001
9.989458e+002,2.036486e-001
1.000874e+003,2.068945e-001
1.002803e+003,2.095074e-001
1.004731e+003,2.126837e-001
1.006660e+003,2.176739e-001
1.008588e+003,2.241471e-001
1.010517e+003,2.306332e-001
1.012445e+003,2.357630e-001
1.014374e+003,2.411284e-001
1.016302e+003,2.469887e-001
1.018230e+003,2.529576e-001
1.020159e+003,2.591205e-001
1.022087e+003,2.649495e-001
1.024016e+003,2.706023e-001
1.025944e+003,2.767511e-001
1.027873e+003,2.819622e-001
1.029801e+003,2.844615e-001
1.031730e+003,2.837214e-001
1.033658e+003,2.792112e-001
1.035587e+003,2.710573e-001
1.037515e+003,2.604401e-001
1.039444e+003,2.496039e-001
1.041372e+003,2.392412e-001
1.043301e+003,2.309307e-001
1.045229e+003,2.260934e-001
1.047157e+003,2.220570e-001
1.049086e+003,2.181004e-001
1.051014e+003,2.158495e-001
1.052943e+003,2.145447e-001
1.054871e+003,2.127898e-001
1.056800e+003,2.114760e-001
1.058728e+003,2.112302e-001
1.060657e+003,2.103224e-001
1.062585e+003,2.095952e-001
1.064514e+003,2.093642e-001
1.066442e+003,2.094485e-001
1.068371e+003,2.103672e-001
1.070299e+003,2.112706e-001
1.072228e+003,2.119006e-001
1.074156e+003,2.124670e-001
1.076084e+003,2.121811e-001
1.078013e+003,2.116279e-001
1.079941e+003,2.117724e-001
1.081870e+003,2.109284e-001
1.083798e+003,2.096789e-001
1.085727e+003,2.088996e-001
1.087655e+003,2.080636e-001
1.089584e+003,2.075492e-001
1.091512e+003,2.070554e-001
1.093441e+003,2.070373e-001
1.095369e+003,2.059186e-001
1.097298e+003,2.048957e-001
1.099226e+003,2.043487e-001
1.101155e+003,2.045781e-001
1.103083e+003,2.060415e-001
1.105011e+003,2.082475e-001
1.106940e+003,2.107309e-001
1.108868e+003,2.145587e-001
1.110797e+003,2.184372e-001
1.112725e+003,2.206554e-001
1.114654e+003,2.222229e-001
1.116582e+003,2.242314e-001
1.118511e+003,2.267468e-001
1.120439e+003,2.273964e-001
1.122368e+003,2.255172e-001
1.124296e+003,2.215851e-001
1.126225e+003,2.154436e-001
1.128153e+003,2.083030e-001
1.130082e+003,2.016741e-001
1.132010e+003,1.972111e-001
1.133938e+003,1.943399e-001
1.135867e+003,1.922223e-001
1.137795e+003,1.916732e-001
1.139724e+003,1.927601e-001
1.141652e+003,1.940206e-001
1.143581e+003,1.952947e-001
1.145509e+003,1.974189e-001
1.147438e+003,2.005909e-001
1.149366e+003,2.033475e-001
1.151295e+003,2.040400e-001
1.153223e+003,2.025429e-001
1.155152e+003,1.997425e-001
1.157080e+003,1.959269e-001
1.159009e+003,1.915897e-001
1.160937e+003,1.876004e-001
1.162865e+003,1.851582e-001
1.164794e+003,1.835120e-001
1.166722e+003,1.821442e-001
1.168651e+003,1.818213e-001
1.170579e+003,1.825432e-001
1.172508e+003,1.837322e-001
1.174436e+003,1.854911e-001
1.176365e+003,1.874359e-001
1.178293e+003,1.896995e-001
1.180222e+003,1.921474e-001
1.182150e+003,1.950408e-001
1.184079e+003,1.980214e-001
1.186007e+003,2.006038e-001
1.187936e+003,2.031658e-001
1.189864e+003,2.055164e-001
1.191792e+003,2.082166e-001
1.193721e+003,2.113778e-001
1.195649e+003,2.144131e-001
1.197578e+003,2.176571e-001
1.199506e+003,2.212176e-001
1.201435e+003,2.245250e-001
1.203363e+003,2.272561e-001
1.205292e+003,2.292804e-001
1.207220e+003,2.303306e-001
1.209149e+003,2.304948e-001
1.211077e+003,2.299995e-001
1.213006e+003,2.288801e-001
1.214934e+003,2.273445e-001
1.216863e+003,2.259622e-001
1.218791e+003,2.246420e-001
1.220719e+003,2.236262e-001
1.222648e+003,2.229029e-001
1.224576e+003,2.224792e-001
1.226505e+003,2.224731e-001
1.228433e+003,2.230861e-001
1.230362e+003,2.241190e-001
1.232290e+003,2.245829e-001
1.234219e+003,2.244795e-001
1.236147e+003,2.231365e-001
1.238076e+003,2.205233e-001
1.240004e+003,2.173759e-001
1.241933e+003,2.141243e-001
1.243861e+003,2.112460e-001
1.245790e+003,2.094819e-001
1.247718e+003,2.086181e-001
1.249646e+003,2.085519e-001
1.251575e+003,2.091327e-001
1.253503e+003,2.102391e-001
1.255432e+003,2.121468e-001
1.257360e+003,2.147111e-001
1.259289e+003,2.167218e-001
1.261217e+003,2.180907e-001
1.263146e+003,2.204340e-001
1.265074e+003,2.231271e-001
1.267003e+003,2.251520e-001
1.268931e+003,2.259489e-001
1.270860e+003,2.248371e-001
1.272788e+003,2.211556e-001
1.274717e+003,2.150232e-001
1.276645e+003,2.079567e-001
1.278573e+003,2.007377e-001
1.280502e+003,1.933779e-001
1.282430e+003,1.861890e-001
1.284359e+003,1.795720e-001
1.286287e+003,1.736284e-001
1.288216e+003,1.677306e-001
1.290144e+003,1.618299e-001
1.292073e+003,1.562081e-001
1.294001e+003,1.508232e-001
1.295930e+003,1.462413e-001
1.297858e+003,1.417705e-001
1.299787e+003,1.378579e-001
1.301715e+003,1.346419e-001
1.303644e+003,1.314005e-001
1.305572e+003,1.286001e-001
1.307500e+003,1.263926e-001
1.309429e+003,1.244936e-001
1.311357e+003,1.228829e-001
1.313286e+003,1.215942e-001
1.315214e+003,1.204383e-001
1.317143e+003,1.193013e-001
1.319071e+003,1.181518e-001
1.321000e+003,1.173795e-001
1.322928e+003,1.166751e-001
1.324857e+003,1.160128e-001
1.326785e+003,1.158583e-001
1.328714e+003,1.157337e-001
1.330642e+003,1.154410e-001
1.332571e+003,1.154950e-001
1.334499e+003,1.157655e-001
1.336427e+003,1.157758e-001
1.338356e+003,1.158062e-001
1.340284e+003,1.162944e-001
1.342213e+003,1.173343e-001
1.344141e+003,1.186036e-001
1.346070e+003,1.202750e-001
1.347998e+003,1.224966e-001
1.349927e+003,1.249802e-001
1.351855e+003,1.276463e-001
1.353784e+003,1.298321e-001
1.355712e+003,1.317314e-001
1.357641e+003,1.334691e-001
1.359569e+003,1.348362e-001
1.361498e+003,1.355242e-001
1.363426e+003,1.353762e-001
1.365354e+003,1.349179e-001
1.367283e+003,1.344909e-001
1.369211e+003,1.340149e-001
1.371140e+003,1.332843e-001
1.373068e+003,1.325968e-001
1.374997e+003,1.319258e-001
1.376925e+003,1.310460e-001
1.378854e+003,1.295290e-001
1.380782e+003,1.272764e-001
1.382711e+003,1.247629e-001
1.384639e+003,1.223681e-001
1.386568e+003,1.202344e-001
1.388496e+003,1.179049e-001
1.390425e+003,1.158097e-001
1.392353e+003,1.142494e-001
1.394281e+003,1.130678e-001
1.396210e+003,1.123450e-001
1.398138e+003,1.119003e-001
1.400067e+003,1.115944e-001
1.401995e+003,1.116688e-001
1.403924e+003,1.123950e-001
1.405852e+003,1.136258e-001
1.407781e+003,1.148129e-001
1.409709e+003,1.159652e-001
1.411638e+003,1.174171e-001
1.413566e+003,1.190429e-001
1.415495e+003,1.209574e-001
1.417423e+003,1.238280e-001
1.419352e+003,1.276226e-001
1.421280e+003,1.316504e-001
1.423208e+003,1.354375e-001
1.425137e+003,1.395126e-001
1.427065e+003,1.430942e-001
1.428994e+003,1.455002e-001
1.430922e+003,1.459087e-001
1.432851e+003,1.443274e-001
1.434779e+003,1.421291e-001
1.436708e+003,1.404187e-001
1.438636e+003,1.399054e-001
1.440565e+003,1.405606e-001
1.442493e+003,1.425474e-001
1.444422e+003,1.457878e-001
1.446350e+003,1.498058e-001
1.448279e+003,1.534695e-001
1.450207e+003,1.557634e-001
1.452135e+003,1.561262e-001
1.454064e+003,1.546060e-001
1.455992e+003,1.523972e-001
1.457921e+003,1.510810e-001
1.459849e+003,1.506394e-001
1.461778e+003,1.506097e-001
1.463706e+003,1.491244e-001
1.465635e+003,1.442256e-001
1.467563e+003,1.360984e-001
1.469492e+003,1.264400e-001
1.471420e+003,1.171663e-001
1.473349e+003,1.089044e-001
1.475277e+003,1.022394e-001
1.477206e+003,9.733777e-002
1.479134e+003,9.378511e-002
1.481063e+003,9.131925e-002
1.482991e+003,8.968766e-002
1.484919e+003,8.882605e-002
1.486848e+003,8.868403e-002
1.488776e+003,8.924478e-002
1.490705e+003,9.053340e-002
1.492633e+003,9.233420e-002
1.494562e+003,9.493603e-002
1.496490e+003,9.865841e-002
1.498419e+003,1.037457e-001
1.500347e+003,1.104006e-001
1.502276e+003,1.178532e-001
1.504204e+003,1.253471e-001
1.506133e+003,1.343090e-001
1.508061e+003,1.468198e-001
1.509990e+003,1.620847e-001
1.511918e+003,1.751860e-001
1.513846e+003,1.796157e-001
1.515775e+003,1.713149e-001
1.517703e+003,1.521730e-001
1.519632e+003,1.291105e-001
1.521560e+003,1.081257e-001
1.523489e+003,9.148389e-002
1.525417e+003,7.843187e-002
1.527346e+003,6.801920e-002
1.529274e+003,5.982275e-002
1.531203e+003,5.414714e-002
1.533131e+003,5.076676e-002
1.535060e+003,4.888976e-002
1.536988e+003,4.851106e-002
1.538917e+003,4.910716e-002
1.540845e+003,4.941914e-002
1.542773e+003,4.877242e-002
1.544702e+003,4.773482e-002
1.546630e+003,4.672040e-002
1.548559e+003,4.588949e-002
1.550487e+003,4.565243e-002
1.552416e+003,4.645298e-002
1.554344e+003,4.773763e-002
1.556273e+003,4.890015e-002
1.558201e+003,5.045321e-002
1.560130e+003,5.205775e-002
1.562058e+003,5.375779e-002
1.563987e+003,5.584488e-002
1.565915e+003,5.799013e-002
1.567844e+003,6.036738e-002
1.569772e+003,6.343230e-002
1.571700e+003,6.677175e-002
1.573629e+003,7.029431e-002
1.575557e+003,7.427387e-002
1.577486e+003,7.827440e-002
1.579414e+003,8.210989e-002
1.581343e+003,8.554874e-002
1.583271e+003,8.882780e-002
1.585200e+003,9.211136e-002
1.587128e+003,9.494642e-002
1.589057e+003,9.784859e-002
1.590985e+003,1.008044e-001
1.592914e+003,1.037150e-001
1.594842e+003,1.065738e-001
1.596771e+003,1.089603e-001
1.598699e+003,1.106111e-001
1.600627e+003,1.113695e-001
1.602556e+003,1.111063e-001
1.604484e+003,1.104207e-001
1.606413e+003,1.090938e-001
1.608341e+003,1.075030e-001
1.610270e+003,1.055377e-001
1.612198e+003,1.030137e-001
1.614127e+003,9.988868e-002
1.616055e+003,9.594680e-002
1.617984e+003,9.191785e-002
1.619912e+003,8.851398e-002
1.621841e+003,8.571929e-002
1.623769e+003,8.322556e-002
1.625698e+003,8.128346e-002
1.627626e+003,7.999323e-002
1.629554e+003,7.915288e-002
1.631483e+003,7.894719e-002
1.633411e+003,7.880911e-002
1.635340e+003,7.857312e-002
1.637268e+003,7.857217e-002
1.639197e+003,7.887701e-002
1.641125e+003,7.944560e-002
1.643054e+003,7.978009e-002
1.644982e+003,8.002163e-002
1.646911e+003,8.060218e-002
1.648839e+003,8.129545e-002
1.650768e+003,8.191815e-002
1.652696e+003,8.233027e-002
1.654625e+003,8.301470e-002
1.656553e+003,8.356790e-002
1.658481e+003,8.396720e-002
1.660410e+003,8.440272e-002
1.662338e+003,8.484770e-002
1.664267e+003,8.519737e-002
1.666195e+003,8.585610e-002
1.668124e+003,8.650059e-002
1.670052e+003,8.713680e-002
1.671981e+003,8.784322e-002
1.673909e+003,8.858321e-002
1.675838e+003,8.950216e-002
1.677766e+003,9.060757e-002
1.679695e+003,9.177399e-002
1.681623e+003,9.317760e-002
1.683552e+003,9.505598e-002
1.685480e+003,9.707601e-002
1.687408e+003,9.955181e-002
1.689337e+003,1.026072e-001
1.691265e+003,1.054352e-001
1.693194e+003,1.080974e-001
1.695122e+003,1.108049e-001
1.697051e+003,1.128065e-001
1.698979e+003,1.139293e-001
1.700908e+003,1.150544e-001
1.702836e+003,1.157686e-001
1.704765e+003,1.159570e-001
1.706693e+003,1.155592e-001
1.708622e+003,1.144615e-001
1.710550e+003,1.129377e-001
1.712479e+003,1.111561e-001
1.714407e+003,1.091157e-001
1.716335e+003,1.065882e-001
1.718264e+003,1.038143e-001
1.720192e+003,1.010043e-001
1.722121e+003,9.816100e-002
1.724049e+003,9.509315e-002
1.725978e+003,9.158620e-002
1.727906e+003,8.833953e-002
1.729835e+003,8.541702e-002
1.731763e+003,8.262061e-002
1.733692e+003,8.008980e-002
1.735620e+003,7.760520e-002
1.737549e+003,7.516193e-002
1.739477e+003,7.305284e-002
1.741406e+003,7.069480e-002
1.743334e+003,6.779039e-002
1.745262e+003,6.491993e-002
1.747191e+003,6.228366e-002
1.749119e+003,5.973868e-002
1.751048e+003,5.731574e-002
1.752976e+003,5.508830e-002
1.754905e+003,5.315955e-002
1.756833e+003,5.120577e-002
1.758762e+003,4.928346e-002
1.760690e+003,4.728149e-002
1.762619e+003,4.523738e-002
1.764547e+003,4.329870e-002
1.766476e+003,4.130115e-002
1.768404e+003,3.944818e-002
1.770333e+003,3.788021e-002
1.772261e+003,3.643920e-002
1.774189e+003,3.509796e-002
1.776118e+003,3.366860e-002
1.778046e+003,3.218092e-002
1.779975e+003,3.075407e-002
1.781903e+003,2.940429e-002
1.783832e+003,2.842510e-002
1.785760e+003,2.735653e-002
1.787689e+003,2.640447e-002
1.789617e+003,2.567611e-002
1.791546e+003,2.488033e-002
1.793474e+003,2.403900e-002
1.795403e+003,2.326306e-002
1.797331e+003,2.266965e-002
1.799260e+003,2.207861e-002
1.801188e+003,2.118570e-002
1.803116e+003,2.023165e-002
1.805045e+003,1.951928e-002
1.806973e+003,1.903154e-002
1.808902e+003,1.855421e-002
1.810830e+003,1.826110e-002
1.812759e+003,1.799323e-002
1.814687e+003,1.732837e-002
1.816616e+003,1.680886e-002
1.818544e+003,1.673371e-002
1.820473e+003,1.673130e-002
1.822401e+003,1.670916e-002
1.824330e+003,1.657293e-002
1.826258e+003,1.635502e-002
1.828187e+003,1.621150e-002
1.830115e+003,1.629031e-002
1.832043e+003,1.639310e-002
1.833972e+003,1.644820e-002
1.835900e+003,1.629495e-002
1.837829e+003,1.615159e-002
1.839757e+003,1.629536e-002
1.841686e+003,1.647098e-002
1.843614e+003,1.630083e-002
1.845543e+003,1.621092e-002
1.847471e+003,1.629574e-002
1.849400e+003,1.631036e-002
1.851328e+003,1.645745e-002
1.853257e+003,1.645191e-002
1.855185e+003,1.636438e-002
1.857114e+003,1.639077e-002
1.859042e+003,1.648388e-002
1.860970e+003,1.645704e-002
1.862899e+003,1.652560e-002
1.864827e+003,1.643822e-002
1.866756e+003,1.628043e-002
1.868684e+003,1.614089e-002
1.870613e+003,1.612322e-002
1.872541e+003,1.612002e-002
1.874470e+003,1.622516e-002
1.876398e+003,1.638936e-002
1.878327e+003,1.640291e-002
1.880255e+003,1.652401e-002
1.882183e+003,1.649893e-002
1.884112e+003,1.629643e-002
1.886040e+003,1.632966e-002
1.887969e+003,1.634531e-002
1.889897e+003,1.634875e-002
1.891826e+003,1.641237e-002
1.893754e+003,1.630971e-002
1.895683e+003,1.617064e-002
1.897611e+003,1.601567e-002
1.899540e+003,1.602131e-002
1.901468e+003,1.609296e-002
1.903397e+003,1.611892e-002
1.905325e+003,1.612260e-002
1.907254e+003,1.615513e-002
1.909182e+003,1.605706e-002
1.911110e+003,1.602028e-002
1.913039e+003,1.600426e-002
1.914967e+003,1.598274e-002
1.916896e+003,1.599191e-002
1.918824e+003,1.588412e-002
1.920753e+003,1.582326e-002
1.922681e+003,1.588811e-002
1.924610e+003,1.592787e-002
1.926538e+003,1.602811e-002
1.928467e+003,1.607195e-002
1.930395e+003,1.612542e-002
1.932324e+003,1.616112e-002
1.934252e+003,1.599184e-002
1.936181e+003,1.601244e-002
1.938109e+003,1.621030e-002
1.940037e+003,1.619640e-002
1.941966e+003,1.602447e-002
1.943894e+003,1.602162e-002
1.945823e+003,1.618213e-002
1.947751e+003,1.631057e-002
1.949680e+003,1.635533e-002
1.951608e+003,1.639672e-002
1.953537e+003,1.628955e-002
1.955465e+003,1.622313e-002
1.957394e+003,1.629034e-002
1.959322e+003,1.633558e-002
1.961251e+003,1.632223e-002
1.963179e+003,1.633045e-002
1.965108e+003,1.622804e-002
1.967036e+003,1.627696e-002
1.968964e+003,1.634043e-002
1.970893e+003,1.640126e-002
1.972821e+003,1.642401e-002
1.974750e+003,1.622020e-002
1.976678e+003,1.603234e-002
1.978607e+003,1.619049e-002
1.980535e+003,1.630004e-002
1.982464e+003,1.626850e-002
1.984392e+003,1.631225e-002
1.986321e+003,1.634710e-002
1.988249e+003,1.635646e-002
1.990178e+003,1.640209e-002
1.992106e+003,1.624572e-002
1.994035e+003,1.627500e-002
1.995963e+003,1.645728e-002
1.997891e+003,1.633492e-002
1.999820e+003,1.628129e-002
2.001748e+003,1.643636e-002
2.003677e+003,1.647951e-002
2.005605e+003,1.656966e-002
2.007534e+003,1.661558e-002
2.009462e+003,1.640129e-002
2.011391e+003,1.645339e-002
2.013319e+003,1.682918e-002
2.015248e+003,1.681881e-002
2.017176e+003,1.671777e-002
2.019105e+003,1.679084e-002
2.021033e+003,1.669800e-002
2.022962e+003,1.676436e-002
2.024890e+003,1.675427e-002
2.026818e+003,1.670499e-002
2.028747e+003,1.675826e-002
2.030675e+003,1.679567e-002
2.032604e+003,1.684953e-002
2.034532e+003,1.683517e-002
2.036461e+003,1.689252e-002
2.038389e+003,1.685515e-002
2.040318e+003,1.664832e-002
2.042246e+003,1.684134e-002
2.044175e+003,1.713797e-002
2.046103e+003,1.707407e-002
2.048032e+003,1.687440e-002
2.049960e+003,1.683493e-002
2.051889e+003,1.684292e-002
2.053817e+003,1.689228e-002
2.055746e+003,1.704888e-002
2.057674e+003,1.692794e-002
2.059603e+003,1.693328e-002
2.061531e+003,1.698337e-002
2.063459e+003,1.677583e-002
2.065388e+003,1.680249e-002
2.067316e+003,1.687540e-002
2.069245e+003,1.681978e-002
2.071173e+003,1.686008e-002
2.073102e+003,1.675138e-002
2.075030e+003,1.658246e-002
2.076959e+003,1.664419e-002
2.078887e+003,1.668774e-002
2.080816e+003,1.657654e-002
2.082744e+003,1.643622e-002
2.084673e+003,1.636221e-002
2.086601e+003,1.637528e-002
2.088530e+003,1.632956e-002
2.090458e+003,1.638220e-002
2.092386e+003,1.622371e-002
2.094315e+003,1.614120e-002
2.096243e+003,1.617563e-002
2.098172e+003,1.633083e-002
2.100100e+003,1.640773e-002
2.102029e+003,1.634975e-002
2.103957e+003,1.612411e-002
2.105886e+003,1.610444e-002
2.107814e+003,1.617102e-002
2.109743e+003,1.620012e-002
2.111671e+003,1.621718e-002
2.113600e+003,1.622068e-002
2.115528e+003,1.609956e-002
2.117457e+003,1.604785e-002
2.119385e+003,1.589505e-002
2.121313e+003,1.587539e-002
2.123242e+003,1.609743e-002
2.125170e+003,1.610695e-002
2.127099e+003,1.609272e-002
2.129027e+003,1.609031e-002
2.130956e+003,1.600477e-002
2.132884e+003,1.612308e-002
2.134813e+003,1.622240e-002
2.136741e+003,1.609860e-002
2.138670e+003,1.614261e-002
2.140598e+003,1.612652e-002
2.142527e+003,1.595032e-002
2.144455e+003,1.579536e-002
2.146384e+003,1.578295e-002
2.148312e+003,1.596960e-002
2.150240e+003,1.603822e-002
2.152169e+003,1.604059e-002
2.154097e+003,1.603554e-002
2.156026e+003,1.602072e-002
2.157954e+003,1.592849e-002
2.159883e+003,1.604726e-002
2.161811e+003,1.609657e-002
2.163740e+003,1.582869e-002
2.165668e+003,1.572399e-002
2.167597e+003,1.578886e-002
2.169525e+003,1.590258e-002
2.171454e+003,1.589319e-002
2.173382e+003,1.581371e-002
2.175311e+003,1.589137e-002
2.177239e+003,1.577766e-002
2.179167e+003,1.569390e-002
2.181096e+003,1.581704e-002
2.183024e+003,1.589904e-002
2.184953e+003,1.600446e-002
2.186881e+003,1.605393e-002
2.188810e+003,1.586343e-002
2.190738e+003,1.571152e-002
2.192667e+003,1.577038e-002
2.194595e+003,1.593193e-002
2.196524e+003,1.574774e-002
2.198452e+003,1.555362e-002
2.200381e+003,1.580261e-002
2.202309e+003,1.589385e-002
2.204238e+003,1.563691e-002
2.206166e+003,1.561015e-002
2.208094e+003,1.551976e-002
2.210023e+003,1.539911e-002
2.211951e+003,1.549573e-002
2.213880e+003,1.573482e-002
2.215808e+003,1.583948e-002
2.217737e+003,1.588859e-002
2.219665e+003,1.590385e-002
2.221594e+003,1.567116e-002
2.223522e+003,1.560669e-002
2.225451e+003,1.575395e-002
2.227379e+003,1.570572e-002
2.229308e+003,1.553484e-002
2.231236e+003,1.558625e-002
2.233165e+003,1.566171e-002
2.235093e+003,1.574451e-002
2.237021e+003,1.559199e-002
2.238950e+003,1.560023e-002
2.240878e+003,1.575145e-002
2.242807e+003,1.580189e-002
2.244735e+003,1.567676e-002
2.246664e+003,1.541308e-002
2.248592e+003,1.529493e-002
2.250521e+003,1.553075e-002
2.252449e+003,1.592368e-002
2.254378e+003,1.604967e-002
2.256306e+003,1.606005e-002
2.258235e+003,1.611194e-002
2.260163e+003,1.600742e-002
2.262092e+003,1.558587e-002
2.264020e+003,1.545075e-002
2.265948e+003,1.565457e-002
2.267877e+003,1.582078e-002
2.269805e+003,1.590399e-002
2.271734e+003,1.592705e-002
2.273662e+003,1.582697e-002
2.275591e+003,1.579323e-002
2.277519e+003,1.572578e-002
2.279448e+003,1.577151e-002
2.281376e+003,1.607384e-002
2.283305e+003,1.610929e-002
2.285233e+003,1.583412e-002
2.287162e+003,1.580728e-002
2.289090e+003,1.600106e-002
2.291019e+003,1.607425e-002
2.292947e+003,1.610379e-002
2.294875e+003,1.616273e-002
2.296804e+003,1.624896e-002
2.298732e+003,1.654470e-002
2.300661e+003,1.671918e-002
2.302589e+003,1.633671e-002
2.304518e+003,1.617704e-002
2.306446e+003,1.634026e-002
2.308375e+003,1.640849e-002
2.310303e+003,1.642153e-002
2.312232e+003,1.635681e-002
2.314160e+003,1.640759e-002
2.316089e+003,1.653520e-002
2.318017e+003,1.651403e-002
2.319946e+003,1.640529e-002
2.321874e+003,1.629082e-002
2.323802e+003,1.614447e-002
2.325731e+003,1.629216e-002
2.327659e+003,1.647834e-002
2.329588e+003,1.650949e-002
2.331516e+003,1.659399e-002
2.333445e+003,1.670289e-002
2.335373e+003,1.661475e-002
2.337302e+003,1.642724e-002
2.339230e+003,1.625553e-002
2.341159e+003,1.615785e-002
2.343087e+003,1.624658e-002
2.345016e+003,1.641389e-002
2.346944e+003,1.638416e-002
2.348873e+003,1.621594e-002
2.350801e+003,1.622364e-002
2.352729e+003,1.620132e-002
2.354658e+003,1.611806e-002
2.356586e+003,1.628201e-002
2.358515e+003,1.638361e-002
2.360443e+003,1.646736e-002
2.362372e+003,1.653947e-002
2.364300e+003,1.635464e-002
2.366229e+003,1.628150e-002
2.368157e+003,1.635553e-002
2.370086e+003,1.652832e-002
2.372014e+003,1.647710e-002
2.373943e+003,1.649500e-002
2.375871e+003,1.673537e-002
2.377800e+003,1.698261e-002
2.379728e+003,1.690944e-002
2.381656e+003,1.679546e-002
2.383585e+003,1.679353e-002
2.385513e+003,1.691943e-002
2.387442e+003,1.685746e-002
2.389370e+003,1.679536e-002
2.391299e+003,1.689614e-002
2.393227e+003,1.681754e-002
2.395156e+003,1.694727e-002
2.397084e+003,1.727700e-002
2.399013e+003,1.713469e-002
2.400941e+003,1.680658e-002
2.402870e+003,1.704809e-002
2.404798e+003,1.718636e-002
2.406727e+003,1.729689e-002
2.408655e+003,1.759032e-002
2.410583e+003,1.744091e-002
2.412512e+003,1.709685e-002
2.414440e+003,1.714827e-002
2.416369e+003,1.749323e-002
2.418297e+003,1.755968e-002
2.420226e+003,1.735520e-002
2.422154e+003,1.725535e-002
2.424083e+003,1.740662e-002
2.426011e+003,1.751421e-002
2.427940e+003,1.759028e-002
2.429868e+003,1.760364e-002
2.431797e+003,1.766509e-002
2.433725e+003,1.796743e-002
2.435654e+003,1.809885e-002
2.437582e+003,1.788359e-002
2.439510e+003,1.791871e-002
2.441439e+003,1.802587e-002
2.443367e+003,1.795932e-002
2.445296e+003,1.784662e-002
2.447224e+003,1.779690e-002
2.449153e+003,1.803015e-002
2.451081e+003,1.821300e-002
2.453010e+003,1.811633e-002
2.454938e+003,1.826110e-002
2.456867e+003,1.821718e-002
2.458795e+003,1.809996e-002
2.460724e+003,1.823577e-002
2.462652e+003,1.832348e-002
2.464581e+003,1.822105e-002
2.466509e+003,1.822171e-002
2.468438e+003,1.826708e-002
2.470366e+003,1.812055e-002
2.472294e+003,1.808517e-002
2.474223e+003,1.851690e-002
2.476151e+003,1.868449e-002
2.478080e+003,1.854422e-002
2.480008e+003,1.863057e-002
2.481937e+003,1.859851e-002
2.483865e+003,1.851469e-002
2.485794e+003,1.846687e-002
2.487722e+003,1.850327e-002
2.489651e+003,1.860124e-002
2.491579e+003,1.875742e-002
2.493508e+003,1.884969e-002
2.495436e+003,1.889330e-002
2.497365e+003,1.894916e-002
2.499293e+003,1.888762e-002
2.501221e+003,1.890565e-002
2.503150e+003,1.899859e-002
2.505078e+003,1.888572e-002
2.507007e+003,1.876188e-002
2.508935e+003,1.892247e-002
2.510864e+003,1.941830e-002
2.512792e+003,1.943101e-002
2.514721e+003,1.919154e-002
2.516649e+003,1.937429e-002
2.518578e+003,1.956249e-002
2.520506e+003,1.977387e-002
2.522435e+003,1.963660e-002
2.524363e+003,1.939609e-002
2.526292e+003,1.941189e-002
2.528220e+003,1.961272e-002
2.530148e+003,1.962055e-002
2.532077e+003,1.957615e-002
2.534005e+003,1.962080e-002
2.535934e+003,1.966448e-002
2.537862e+003,1.969079e-002
2.539791e+003,1.972682e-002
2.541719e+003,1.979145e-002
2.543648e+003,1.999129e-002
2.545576e+003,1.998011e-002
2.547505e+003,1.976638e-002
2.549433e+003,1.983390e-002
2.551362e+003,1.996662e-002
2.553290e+003,2.019923e-002
2.555219e+003,2.036664e-002
2.557147e+003,2.040654e-002
2.559075e+003,2.021651e-002
2.561004e+003,2.011423e-002
2.562932e+003,2.003674e-002
2.564861e+003,1.999906e-002
2.566789e+003,2.010937e-002
2.568718e+003,2.035070e-002
2.570646e+003,2.058966e-002
2.572575e+003,2.050216e-002
2.574503e+003,2.015747e-002
2.576432e+003,2.012280e-002
2.578360e+003,2.043637e-002
2.580289e+003,2.058219e-002
2.582217e+003,2.058518e-002
2.584146e+003,2.058459e-002
2.586074e+003,2.051633e-002
2.588002e+003,2.066141e-002
2.589931e+003,2.068338e-002
2.591859e+003,2.082076e-002
2.593788e+003,2.079511e-002
2.595716e+003,2.081691e-002
2.597645e+003,2.079671e-002
2.599573e+003,2.085643e-002
2.601502e+003,2.124085e-002
2.603430e+003,2.142722e-002
2.605359e+003,2.129284e-002
2.607287e+003,2.135266e-002
2.609216e+003,2.129778e-002
2.611144e+003,2.106093e-002
2.613073e+003,2.089262e-002
2.615001e+003,2.073592e-002
2.616929e+003,2.086318e-002
2.618858e+003,2.094471e-002
2.620786e+003,2.088136e-002
2.622715e+003,2.116184e-002
2.624643e+003,2.132113e-002
2.626572e+003,2.139728e-002
2.628500e+003,2.159970e-002
2.630429e+003,2.133056e-002
2.632357e+003,2.111286e-002
2.634286e+003,2.110740e-002
2.636214e+003,2.118894e-002
2.638143e+003,2.115613e-002
2.640071e+003,2.113314e-002
2.642000e+003,2.123786e-002
2.643928e+003,2.150554e-002
2.645856e+003,2.160374e-002
2.647785e+003,2.124394e-002
2.649713e+003,2.118981e-002
2.651642e+003,2.148100e-002
2.653570e+003,2.157849e-002
2.655499e+003,2.155951e-002
2.657427e+003,2.135109e-002
2.659356e+003,2.154687e-002
2.661284e+003,2.162724e-002
2.663213e+003,2.154955e-002
2.665141e+003,2.161095e-002
2.667070e+003,2.161579e-002
2.668998e+003,2.164319e-002
2.670927e+003,2.166057e-002
2.672855e+003,2.176180e-002
2.674783e+003,2.171693e-002
2.676712e+003,2.173229e-002
2.678640e+003,2.187649e-002
2.680569e+003,2.211679e-002
2.682497e+003,2.204783e-002
2.684426e+003,2.203985e-002
2.686354e+003,2.216843e-002
2.688283e+003,2.213196e-002
2.690211e+003,2.201071e-002
2.692140e+003,2.182876e-002
2.694068e+003,2.181907e-002
2.695997e+003,2.202001e-002
2.697925e+003,2.212310e-002
2.699854e+003,2.211480e-002
2.701782e+003,2.200747e-002
2.703710e+003,2.203605e-002
2.705639e+003,2.217090e-002
2.707567e+003,2.215650e-002
2.709496e+003,2.207161e-002
2.711424e+003,2.215992e-002
2.713353e+003,2.254214e-002
2.715281e+003,2.305969e-002
2.717210e+003,2.315977e-002
2.719138e+003,2.308527e-002
2.721067e+003,2.325166e-002
2.722995e+003,2.311368e-002
2.724924e+003,2.306682e-002
2.726852e+003,2.330029e-002
2.728781e+003,2.340368e-002
2.730709e+003,2.325152e-002
2.732637e+003,2.318777e-002
2.734566e+003,2.338791e-002
2.736494e+003,2.353704e-002
2.738423e+003,2.335518e-002
2.740351e+003,2.320958e-002
2.742280e+003,2.321175e-002
2.744208e+003,2.331484e-002
2.746137e+003,2.366116e-002
2.748065e+003,2.374595e-002
2.749994e+003,2.363167e-002
2.751922e+003,2.390224e-002
2.753851e+003,2.416677e-002
2.755779e+003,2.388260e-002
2.757708e+003,2.338403e-002
2.759636e+003,2.320297e-002
2.761564e+003,2.338176e-002
2.763493e+003,2.365675e-002
2.765421e+003,2.377993e-002
2.767350e+003,2.373604e-002
2.769278e+003,2.373346e-002
2.771207e+003,2.388141e-002
2.773135e+003,2.394579e-002
2.775064e+003,2.412250e-002
2.776992e+003,2.437900e-002
2.778921e+003,2.469728e-002
2.780849e+003,2.486559e-002
2.782778e+003,2.482693e-002
2.784706e+003,2.482815e-002
2.786635e+003,2.496704e-002
2.788563e+003,2.510782e-002
2.790491e+003,2.507268e-002
2.792420e+003,2.507331e-002
2.794348e+003,2.556743e-002
2.796277e+003,2.601725e-002
2.798205e+003,2.590690e-002
2.800134e+003,2.593487e-002
2.802062e+003,2.631652e-002
2.803991e+003,2.672466e-002
2.805919e+003,2.686087e-002
2.807848e+003,2.688103e-002
2.809776e+003,2.743184e-002
2.811705e+003,2.790260e-002
2.813633e+003,2.810284e-002
2.815562e+003,2.846041e-002
2.817490e+003,2.894805e-002
2.819418e+003,2.958934e-002
2.821347e+003,3.043346e-002
2.823275e+003,3.123038e-002
2.825204e+003,3.192376e-002
2.827132e+003,3.297197e-002
2.829061e+003,3.395027e-002
2.830989e+003,3.524915e-002
2.832918e+003,3.650064e-002
2.834846e+003,3.786413e-002
2.836775e+003,3.913961e-002
2.838703e+003,4.037057e-002
2.840632e+003,4.169853e-002
2.842560e+003,4.292327e-002
2.844489e+003,4.442718e-002
2.846417e+003,4.647558e-002
2.848345e+003,4.832745e-002
2.850274e+003,4.820610e-002
2.852202e+003,4.682362e-002
2.854131e+003,4.543614e-002
2.856059e+003,4.464209e-002
2.857988e+003,4.438721e-002
2.859916e+003,4.417964e-002
2.861845e+003,4.414275e-002
2.863773e+003,4.450892e-002
2.865702e+003,4.505540e-002
2.867630e+003,4.534623e-002
2.869558e+003,4.559671e-002
2.871487e+003,4.599325e-002
2.873415e+003,4.595199e-002
2.875344e+003,4.565324e-002
2.877272e+003,4.562409e-002
2.879201e+003,4.577947e-002
2.881129e+003,4.581901e-002
2.883058e+003,4.562637e-002
2.884986e+003,4.583289e-002
2.886915e+003,4.635170e-002
2.888843e+003,4.698312e-002
2.890771e+003,4.741563e-002
2.892700e+003,4.789829e-002
2.894628e+003,4.867912e-002
2.896557e+003,4.977344e-002
2.898485e+003,5.098367e-002
2.900414e+003,5.196771e-002
2.902342e+003,5.283971e-002
2.904271e+003,5.357172e-002
2.906199e+003,5.482459e-002
2.908128e+003,5.638748e-002
2.910056e+003,5.849099e-002
2.911985e+003,6.174404e-002
2.913913e+003,6.501421e-002
2.915842e+003,6.730578e-002
2.917770e+003,6.798045e-002
2.919698e+003,6.750313e-002
2.921627e+003,6.652297e-002
2.923555e+003,6.543159e-002
2.925484e+003,6.486407e-002
2.927412e+003,6.466949e-002
2.929341e+003,6.462188e-002
2.931269e+003,6.468695e-002
2.933198e+003,6.457794e-002
2.935126e+003,6.361942e-002
2.937055e+003,6.282274e-002
2.938983e+003,6.202372e-002
2.940912e+003,6.098033e-002
2.942840e+003,5.944139e-002
2.944769e+003,5.824418e-002
2.946697e+003,5.777154e-002
2.948625e+003,5.707372e-002
2.950554e+003,5.689015e-002
2.952482e+003,5.712187e-002
2.954411e+003,5.700224e-002
2.956339e+003,5.679868e-002
2.958268e+003,5.665264e-002
2.960196e+003,5.637442e-002
2.962125e+003,5.515368e-002
2.964053e+003,5.413686e-002
2.965982e+003,5.293379e-002
2.967910e+003,5.184120e-002
2.969839e+003,5.042095e-002
2.971767e+003,4.885491e-002
2.973696e+003,4.717222e-002
2.975624e+003,4.560617e-002
2.977552e+003,4.462564e-002
2.979481e+003,4.382035e-002
2.981409e+003,4.223414e-002
2.983338e+003,4.104251e-002
2.985266e+003,4.026386e-002
2.987195e+003,3.897525e-002
2.989123e+003,3.794942e-002
2.991052e+003,3.726733e-002
2.992980e+003,3.704702e-002
2.994909e+003,3.692435e-002
2.996837e+003,3.649398e-002
2.998766e+003,3.606720e-002
3.000694e+003,3.629076e-002
3.002623e+003,3.614688e-002
3.004551e+003,3.515602e-002
3.006479e+003,3.428761e-002
3.008408e+003,3.382195e-002
3.010336e+003,3.363463e-002
3.012265e+003,3.418407e-002
3.014193e+003,3.387954e-002
3.016122e+003,3.361673e-002
3.018050e+003,3.357058e-002
3.019979e+003,3.328144e-002
3.021907e+003,3.334712e-002
3.023836e+003,3.351141e-002
3.025764e+003,3.326001e-002
3.027693e+003,3.304626e-002
3.029621e+003,3.299896e-002
3.031550e+003,3.263825e-002
3.033478e+003,3.267058e-002
3.035406e+003,3.264486e-002
3.037335e+003,3.245794e-002
3.039263e+003,3.253517e-002
3.041192e+003,3.258032e-002
3.043120e+003,3.205473e-002
3.045049e+003,3.226681e-002
3.046977e+003,3.289093e-002
3.048906e+003,3.292346e-002
3.050834e+003,3.294119e-002
3.052763e+003,3.315357e-002
3.054691e+003,3.340841e-002
3.056620e+003,3.367082e-002
3.058548e+003,3.386740e-002
3.060477e+003,3.400591e-002
3.062405e+003,3.393296e-002
3.064333e+003,3.354631e-002
3.066262e+003,3.358902e-002
3.068190e+003,3.407840e-002
3.070119e+003,3.424634e-002
3.072047e+003,3.405436e-002
3.073976e+003,3.403938e-002
3.075904e+003,3.432332e-002
3.077833e+003,3.430894e-002
3.079761e+003,3.400534e-002
3.081690e+003,3.380601e-002
3.083618e+003,3.399950e-002
3.085547e+003,3.425157e-002
3.087475e+003,3.439942e-002
3.089404e+003,3.461535e-002
3.091332e+003,3.495824e-002
3.093260e+003,3.488607e-002
3.095189e+003,3.475912e-002
3.097117e+003,3.489098e-002
3.099046e+003,3.524908e-002
3.100974e+003,3.544590e-002
3.102903e+003,3.546086e-002
3.104831e+003,3.567879e-002
3.106760e+003,3.604200e-002
3.108688e+003,3.647686e-002
3.110617e+003,3.671953e-002
3.112545e+003,3.681476e-002
3.114474e+003,3.677841e-002
3.116402e+003,3.676698e-002
3.118331e+003,3.744413e-002
3.120259e+003,3.793958e-002
3.122188e+003,3.797126e-002
3.124116e+003,3.801921e-002
3.126044e+003,3.841298e-002
3.127973e+003,3.885076e-002
3.129901e+003,3.917812e-002
3.131830e+003,3.908193e-002
3.133758e+003,3.900062e-002
3.135687e+003,3.953785e-002
3.137615e+003,3.948424e-002
3.139544e+003,3.924844e-002
3.141472e+003,3.956115e-002
3.143401e+003,3.991617e-002
3.145329e+003,4.043271e-002
3.147258e+003,4.085867e-002
3.149186e+003,4.132670e-002
3.151115e+003,4.159554e-002
3.153043e+003,4.198359e-002
3.154971e+003,4.203388e-002
3.156900e+003,4.120992e-002
3.158828e+003,4.109834e-002
3.160757e+003,4.213559e-002
3.162685e+003,4.277297e-002
3.164614e+003,4.250416e-002
3.166542e+003,4.266198e-002
3.168471e+003,4.333271e-002
3.170399e+003,4.371872e-002
3.172328e+003,4.393996e-002
3.174256e+003,4.437377e-002
3.176185e+003,4.427228e-002
3.178113e+003,4.439268e-002
3.180042e+003,4.491534e-002
3.181970e+003,4.521348e-002
3.183898e+003,4.585267e-002
3.185827e+003,4.581467e-002
3.187755e+003,4.564135e-002
3.189684e+003,4.606781e-002
3.191612e+003,4.675420e-002
3.193541e+003,4.766186e-002
3.195469e+003,4.746781e-002
3.197398e+003,4.702982e-002
3.199326e+003,4.760525e-002
3.201255e+003,4.807539e-002
3.203183e+003,4.821739e-002
3.205112e+003,4.845234e-002
3.207040e+003,4.854118e-002
3.208969e+003,4.876945e-002
3.210897e+003,4.883637e-002
3.212825e+003,4.901364e-002
3.214754e+003,4.923581e-002
3.216682e+003,4.918842e-002
3.218611e+003,4.906230e-002
3.220539e+003,4.898927e-002
3.222468e+003,4.956723e-002
3.224396e+003,5.082400e-002
3.226325e+003,5.082598e-002
3.228253e+003,5.096426e-002
3.230182e+003,5.171215e-002
3.232110e+003,5.208021e-002
3.234039e+003,5.180827e-002
3.235967e+003,5.205331e-002
3.237896e+003,5.187080e-002
3.239824e+003,5.164378e-002
3.241752e+003,5.158108e-002
3.243681e+003,5.215877e-002
3.245609e+003,5.295592e-002
3.247538e+003,5.277105e-002
3.249466e+003,5.287182e-002
3.251395e+003,5.320442e-002
3.253323e+003,5.337400e-002
3.255252e+003,5.341551e-002
3.257180e+003,5.399249e-002
3.259109e+003,5.445510e-002
3.261037e+003,5.426396e-002
3.262966e+003,5.401936e-002
3.264894e+003,5.411677e-002
3.266823e+003,5.459955e-002
3.268751e+003,5.495249e-002
3.270679e+003,5.471370e-002
3.272608e+003,5.518664e-002
3.274536e+003,5.630754e-002
3.276465e+003,5.711631e-002
3.278393e+003,5.705736e-002
3.280322e+003,5.700140e-002
3.282250e+003,5.734671e-002
3.284179e+003,5.721587e-002
3.286107e+003,5.736297e-002
3.288036e+003,5.768612e-002
3.289964e+003,5.817242e-002
3.291893e+003,5.763198e-002
3.293821e+003,5.774671e-002
3.295750e+003,5.789074e-002
3.297678e+003,5.716076e-002
3.299606e+003,5.740744e-002
3.301535e+003,5.813731e-002
3.303463e+003,5.839440e-002
3.305392e+003,5.874635e-002
3.307320e+003,5.901394e-002
3.309249e+003,5.921645e-002
3.311177e+003,5.948091e-002
3.313106e+003,5.965243e-002
3.315034e+003,5.908398e-002
3.316963e+003,5.879176e-002
3.318891e+003,5.877025e-002
3.320820e+003,5.842992e-002
3.322748e+003,5.890430e-002
3.324677e+003,6.011483e-002
3.326605e+003,6.112471e-002
3.328533e+003,6.084408e-002
3.330462e+003,6.022915e-002
3.332390e+003,6.060515e-002
3.334319e+003,6.030612e-002
3.336247e+003,6.012898e-002
3.338176e+003,6.072334e-002
3.340104e+003,6.147705e-002
3.342033e+003,6.225690e-002
3.343961e+003,6.224351e-002
3.345890e+003,6.200415e-002
3.347818e+003,6.207509e-002
3.349747e+003,6.242408e-002
3.351675e+003,6.204046e-002
3.353604e+003,6.201692e-002
3.355532e+003,6.229747e-002
3.357460e+003,6.239099e-002
3.359389e+003,6.319436e-002
3.361317e+003,6.364313e-002
3.363246e+003,6.285295e-002
3.365174e+003,6.300404e-002
3.367103e+003,6.309561e-002
3.369031e+003,6.307664e-002
3.370960e+003,6.345059e-002
3.372888e+003,6.308143e-002
3.374817e+003,6.228722e-002
3.376745e+003,6.158002e-002
3.378674e+003,6.202028e-002
3.380602e+003,6.245143e-002
3.382531e+003,6.215950e-002
3.384459e+003,6.202644e-002
3.386387e+003,6.276013e-002
3.388316e+003,6.295892e-002
3.390244e+003,6.248422e-002
3.392173e+003,6.256416e-002
3.394101e+003,6.311120e-002
3.396030e+003,6.352587e-002
3.397958e+003,6.266064e-002
3.399887e+003,6.180833e-002
3.401815e+003,6.217311e-002
3.403744e+003,6.179129e-002
3.405672e+003,6.134362e-002
3.407601e+003,6.187530e-002
3.409529e+003,6.297022e-002
3.411458e+003,6.222248e-002
3.413386e+003,6.069583e-002
3.415314e+003,6.030593e-002
3.417243e+003,5.978667e-002
3.419171e+003,5.935474e-002
3.421100e+003,5.941028e-002
3.423028e+003,5.969842e-002
3.424957e+003,5.988151e-002
3.426885e+003,5.993096e-002
3.428814e+003,5.925367e-002
3.430742e+003,5.897401e-002
3.432671e+003,5.874825e-002
3.434599e+003,5.849959e-002
3.436528e+003,5.824001e-002
3.438456e+003,5.817015e-002
3.440385e+003,5.805209e-002
3.442313e+003,5.735185e-002
3.444241e+003,5.673154e-002
3.446170e+003,5.659764e-002
3.448098e+003,5.695527e-002
3.450027e+003,5.670183e-002
3.451955e+003,5.605952e-002
3.453884e+003,5.555559e-002
3.455812e+003,5.535749e-002
3.457741e+003,5.504155e-002
3.459669e+003,5.393404e-002
3.461598e+003,5.304666e-002
3.463526e+003,5.296449e-002
3.465455e+003,5.320816e-002
3.467383e+003,5.239571e-002
3.469312e+003,5.111825e-002
3.471240e+003,5.047175e-002
3.473168e+003,5.028217e-002
3.475097e+003,5.010237e-002
3.477025e+003,4.959653e-002
3.478954e+003,4.890912e-002
3.480882e+003,4.901531e-002
3.482811e+003,4.894621e-002
3.484739e+003,4.831019e-002
3.486668e+003,4.770934e-002
3.488596e+003,4.755885e-002
3.490525e+003,4.689762e-002
3.492453e+003,4.584092e-002
3.494382e+003,4.523421e-002
3.496310e+003,4.513207e-002
3.498239e+003,4.455029e-002
3.500167e+003,4.347713e-002
3.502095e+003,4.285799e-002
3.504024e+003,4.271864e-002
3.505952e+003,4.227675e-002
3.507881e+003,4.197530e-002
3.509809e+003,4.144796e-002
3.511738e+003,4.085667e-002
3.513666e+003,3.966329e-002
3.515595e+003,3.872559e-002
3.517523e+003,3.852626e-002
3.519452e+003,3.798825e-002
3.521380e+003,3.622478e-002
3.523309e+003,3.533145e-002
3.525237e+003,3.643351e-002
3.527166e+003,3.624307e-002
3.529094e+003,3.512756e-002
3.531022e+003,3.446661e-002
3.532951e+003,3.330659e-002
3.534879e+003,3.287850e-002
3.536808e+003,3.271956e-002
3.538736e+003,3.213906e-002
3.540665e+003,3.102559e-002
3.542593e+003,3.034569e-002
3.544522e+003,2.991050e-002
3.546450e+003,2.897897e-002
3.548379e+003,2.806092e-002
3.550307e+003,2.729234e-002
3.552236e+003,2.704377e-002
3.554164e+003,2.689739e-002
3.556093e+003,2.582904e-002
3.558021e+003,2.453282e-002
3.559949e+003,2.367229e-002
3.561878e+003,2.318351e-002
3.563806e+003,2.227294e-002
3.565735e+003,2.193120e-002
3.567663e+003,2.181440e-002
3.569592e+003,2.100953e-002
3.571520e+003,1.960683e-002
3.573449e+003,1.894199e-002
3.575377e+003,1.899239e-002
3.577306e+003,1.880838e-002
3.579234e+003,1.891070e-002
3.581163e+003,1.908880e-002
3.583091e+003,1.868079e-002
3.585020e+003,1.830195e-002
3.586948e+003,1.792765e-002
3.588876e+003,1.662260e-002
3.590805e+003,1.628693e-002
3.592733e+003,1.643646e-002
3.594662e+003,1.603547e-002
3.596590e+003,1.593984e-002
3.598519e+003,1.554943e-002
3.600447e+003,1.522791e-002
3.602376e+003,1.492664e-002
3.604304e+003,1.468502e-002
3.606233e+003,1.438112e-002
3.608161e+003,1.428444e-002
3.610090e+003,1.400779e-002
3.612018e+003,1.392443e-002
3.613947e+003,1.362448e-002
3.615875e+003,1.355563e-002
3.617803e+003,1.405778e-002
3.619732e+003,1.360089e-002
3.621660e+003,1.271581e-002
3.623589e+003,1.204324e-002
3.625517e+003,1.184475e-002
3.627446e+003,1.165258e-002
3.629374e+003,1.125772e-002
3.631303e+003,1.100340e-002
3.633231e+003,1.097465e-002
3.635160e+003,1.121545e-002
3.637088e+003,1.102002e-002
3.639017e+003,1.105435e-002
3.640945e+003,1.125751e-002
3.642874e+003,1.065779e-002
3.644802e+003,1.032255e-002
3.646730e+003,1.059670e-002
3.648659e+003,1.067925e-002
3.650587e+003,1.009826e-002
3.652516e+003,9.828359e-003
3.654444e+003,9.594191e-003
3.656373e+003,9.630912e-003
3.658301e+003,9.328090e-003
3.660230e+003,8.707729e-003
3.662158e+003,8.670579e-003
3.664087e+003,8.849226e-003
3.666015e+003,8.760637e-003
3.667944e+003,8.610144e-003
3.669872e+003,9.016479e-003
3.671801e+003,9.064655e-003
3.673729e+003,8.336268e-003
3.675657e+003,7.944237e-003
3.677586e+003,7.758944e-003
3.679514e+003,7.949265e-003
3.681443e+003,8.116609e-003
3.683371e+003,7.894160e-003
3.685300e+003,7.464738e-003
3.687228e+003,7.479200e-003
3.689157e+003,8.247783e-003
3.691085e+003,8.144698e-003
3.693014e+003,7.511764e-003
3.694942e+003,7.567022e-003
3.696871e+003,7.878572e-003
3.698799e+003,7.730105e-003
3.700728e+003,7.254650e-003
3.702656e+003,7.508157e-003
3.704584e+003,7.880664e-003
3.706513e+003,8.202468e-003
3.708441e+003,8.116711e-003
3.710370e+003,7.809848e-003
3.712298e+003,7.637663e-003
3.714227e+003,7.573361e-003
3.716155e+003,7.576969e-003
3.718084e+003,7.307180e-003
3.720012e+003,7.230494e-003
3.721941e+003,7.818215e-003
3.723869e+003,7.663664e-003
3.725798e+003,7.021395e-003
3.727726e+003,6.742898e-003
3.729655e+003,7.112392e-003
3.731583e+003,7.263006e-003
3.733511e+003,7.423144e-003
3.735440e+003,7.544769e-003
3.737368e+003,7.314188e-003
3.739297e+003,7.397596e-003
3.741225e+003,7.419100e-003
3.743154e+003,7.004457e-003
3.745082e+003,6.697537e-003
3.747011e+003,7.069989e-003
3.748939e+003,7.482975e-003
3.750868e+003,8.038060e-003
3.752796e+003,8.166441e-003
3.754725e+003,7.873511e-003
3.756653e+003,7.850231e-003
3.758582e+003,8.195343e-003
3.760510e+003,7.659280e-003
3.762438e+003,7.018667e-003
3.764367e+003,6.845955e-003
3.766295e+003,6.832390e-003
3.768224e+003,6.918667e-003
3.770152e+003,7.074974e-003
3.772081e+003,7.414987e-003
3.774009e+003,6.560978e-003
3.775938e+003,6.336432e-003
3.777866e+003,6.991931e-003
3.779795e+003,7.576058e-003
3.781723e+003,8.322522e-003
3.783652e+003,8.253559e-003
3.785580e+003,7.460592e-003
3.787509e+003,7.159379e-003
3.789437e+003,7.545073e-003
3.791365e+003,7.462547e-003
3.793294e+003,7.287064e-003
3.795222e+003,7.483683e-003
3.797151e+003,7.286625e-003
3.799079e+003,7.271126e-003
3.801008e+003,7.133241e-003
3.802936e+003,7.148533e-003
3.804865e+003,7.550029e-003
3.806793e+003,7.430391e-003
3.808722e+003,7.722145e-003
3.810650e+003,7.714118e-003
3.812579e+003,7.316480e-003
3.814507e+003,7.415055e-003
3.816436e+003,7.592816e-003
3.818364e+003,7.290433e-003
3.820292e+003,7.129266e-003
3.822221e+003,7.059145e-003
3.824149e+003,7.457019e-003
3.826078e+003,7.971571e-003
3.828006e+003,7.139034e-003
3.829935e+003,7.278000e-003
3.831863e+003,7.865109e-003
3.833792e+003,7.390957e-003
3.835720e+003,6.555595e-003
3.837649e+003,6.323959e-003
3.839577e+003,6.669744e-003
3.841506e+003,7.015738e-003
3.843434e+003,7.188855e-003
3.845363e+003,7.290500e-003
3.847291e+003,7.033080e-003
3.849219e+003,7.082619e-003
3.851148e+003,7.977241e-003
3.853076e+003,8.608320e-003
3.855005e+003,8.092912e-003
3.856933e+003,7.595479e-003
3.858862e+003,7.419672e-003
3.860790e+003,7.765488e-003
3.862719e+003,7.638439e-003
3.864647e+003,7.344820e-003
3.866576e+003,7.239927e-003
3.868504e+003,7.712263e-003
3.870433e+003,7.852863e-003
3.872361e+003,7.528351e-003
3.874290e+003,7.354189e-003
3.876218e+003,7.634831e-003
3.878146e+003,7.678300e-003
3.880075e+003,7.415358e-003
3.882003e+003,7.144222e-003
3.883932e+003,7.324096e-003
3.885860e+003,7.693814e-003
3.887789e+003,8.039714e-003
3.889717e+003,8.178326e-003
3.891646e+003,8.156110e-003
3.893574e+003,7.387519e-003
3.895503e+003,7.175582e-003
3.897431e+003,7.286053e-003
3.899360e+003,7.232886e-003
3.901288e+003,7.550366e-003
3.903217e+003,8.271322e-003
3.905145e+003,8.237518e-003
3.907073e+003,7.862040e-003
3.909002e+003,7.151902e-003
3.910930e+003,6.725265e-003
3.912859e+003,7.201521e-003
3.914787e+003,7.480885e-003
3.916716e+003,7.430492e-003
3.918644e+003,7.427256e-003
3.920573e+003,7.523901e-003
3.922501e+003,7.830832e-003
3.924430e+003,7.759720e-003
3.926358e+003,7.384250e-003
3.928287e+003,7.854179e-003
3.930215e+003,8.332350e-003
3.932144e+003,8.045654e-003
3.934072e+003,7.762958e-003
3.936000e+003,7.863828e-003
3.937929e+003,8.241536e-003
3.939857e+003,7.834172e-003
3.941786e+003,7.086963e-003
3.943714e+003,7.388328e-003
3.945643e+003,7.654457e-003
3.947571e+003,7.465042e-003
3.949500e+003,7.167464e-003
3.951428e+003,7.242892e-003
3.953357e+003,7.386913e-003
3.955285e+003,7.970862e-003
3.957214e+003,8.488153e-003
3.959142e+003,7.969040e-003
3.961071e+003,7.442896e-003
3.962999e+003,7.791429e-003
3.964927e+003,8.234513e-003
3.966856e+003,7.341383e-003
3.968784e+003,6.994692e-003
3.970713e+003,7.184509e-003
3.972641e+003,7.316986e-003
3.974570e+003,7.183700e-003
3.976498e+003,7.215637e-003
3.978427e+003,7.636921e-003
3.980355e+003,7.770649e-003
3.982284e+003,7.484660e-003
3.984212e+003,7.694084e-003
3.986141e+003,8.551612e-003
3.988069e+003,9.158686e-003
3.989998e+003,8.025504e-003
3.991926e+003,7.154563e-003
3.993854e+003,7.632234e-003
3.995783e+003,7.767782e-003
3.997711e+003,8.481294e-003
3.999640e+003,8.577396e-003
4.001568e+003,0.000000e+000
