6.498933e+002,1.650828e-001
6.518218e+002,1.629243e-001
6.537502e+002,1.606181e-001
6.556787e+002,1.587365e-001
6.576072e+002,1.571976e-001
6.595356e+002,1.553332e-001
6.614641e+002,1.538109e-001
6.633926e+002,1.526342e-001
6.653210e+002,1.505146e-001
6.672495e+002,1.488718e-001
6.691780e+002,1.474908e-001
6.711064e+002,1.469711e-001
6.730349e+002,1.466785e-001
6.749634e+002,1.459976e-001
6.768918e+002,1.439194e-001
6.788203e+002,1.415753e-001
6.807488e+002,1.415657e-001
6.826772e+002,1.413530e-001
6.846057e+002,1.403152e-001
6.865342e+002,1.395496e-001
6.884626e+002,1.392600e-001
6.903911e+002,1.392990e-001
6.923196e+002,1.391202e-001
6.942480e+002,1.385048e-001
6.961765e+002,1.377033e-001
6.981050e+002,1.362600e-001
7.000334e+002,1.348632e-001
7.019619e+002,1.344785e-001
7.038904e+002,1.340547e-001
7.058188e+002,1.336442e-001
7.077473e+002,1.333207e-001
7.096758e+002,1.322360e-001
7.116042e+002,1.314186e-001
7.135327e+002,1.317601e-001
7.154612e+002,1.323241e-001
7.173896e+002,1.333793e-001
7.193181e+002,1.340712e-001
7.212466e+002,1.339791e-001
7.231750e+002,1.333883e-001
7.251035e+002,1.334214e-001
7.270320e+002,1.345706e-001
7.289604e+002,1.362998e-001
7.308889e+002,1.364361e-001
7.328174e+002,1.353019e-001
7.347458e+002,1.353569e-001
7.366743e+002,1.362325e-001
7.386028e+002,1.369694e-001
7.405313e+002,1.375363e-001
7.424597e+002,1.386354e-001
7.443882e+002,1.396434e-001
7.463167e+002,1.405031e-001
7.482451e+002,1.419794e-001
7.501736e+002,1.425785e-001
7.521021e+002,1.415892e-001
7.540305e+002,1.413179e-001
7.559590e+002,1.407194e-001
7.578875e+002,1.398340e-001
7.598159e+002,1.386253e-001
7.617444e+002,1.379545e-001
7.636729e+002,1.375454e-001
7.656013e+002,1.367587e-001
7.675298e+002,1.360177e-001
7.694583e+002,1.353302e-001
7.713867e+002,1.345591e-001
7.733152e+002,1.344101e-001
7.752437e+002,1.343407e-001
7.771721e+002,1.344241e-001
7.791006e+002,1.348440e-001
7.810291e+002,1.344005e-001
7.829575e+002,1.342852e-001
7.848860e+002,1.332895e-001
7.868145e+002,1.318767e-001
7.887429e+002,1.309130e-001
7.906714e+002,1.295578e-001
7.925999e+002,1.289486e-001
7.945283e+002,1.281807e-001
7.964568e+002,1.262314e-001
7.983853e+002,1.244738e-001
8.003137e+002,1.244068e-001
8.022422e+002,1.257082e-001
8.041707e+002,1.272458e-001
8.060991e+002,1.288221e-001
8.080276e+002,1.304871e-001
8.099561e+002,1.325376e-001
8.118845e+002,1.345551e-001
8.138130e+002,1.361610e-001
8.157415e+002,1.364555e-001
8.176699e+002,1.347635e-001
8.195984e+002,1.336280e-001
8.215269e+002,1.345465e-001
8.234553e+002,1.337385e-001
8.253838e+002,1.328679e-001
8.273123e+002,1.319947e-001
8.292407e+002,1.306155e-001
8.311692e+002,1.294989e-001
8.330977e+002,1.277215e-001
8.350261e+002,1.260801e-001
8.369546e+002,1.253452e-001
8.388831e+002,1.255036e-001
8.408115e+002,1.263509e-001
8.427400e+002,1.264674e-001
8.446685e+002,1.268357e-001
8.465969e+002,1.282465e-001
8.485254e+002,1.302883e-001
8.504539e+002,1.319432e-001
8.523823e+002,1.335527e-001
8.543108e+002,1.338957e-001
8.562393e+002,1.342182e-001
8.581677e+002,1.337985e-001
8.600962e+002,1.326711e-001
8.620247e+002,1.307069e-001
8.639531e+002,1.282539e-001
8.658816e+002,1.268740e-001
8.678101e+002,1.259849e-001
8.697385e+002,1.251450e-001
8.716670e+002,1.245778e-001
8.735955e+002,1.252415e-001
8.755239e+002,1.264038e-001
8.774524e+002,1.266920e-001
8.793809e+002,1.266996e-001
8.813093e+002,1.270749e-001
8.832378e+002,1.282216e-001
8.851663e+002,1.294362e-001
8.870947e+002,1.296450e-001
8.890232e+002,1.293509e-001
8.909517e+002,1.285671e-001
8.928801e+002,1.270749e-001
8.948086e+002,1.253739e-001
8.967371e+002,1.238314e-001
8.986655e+002,1.231060e-001
9.005940e+002,1.233535e-001
9.025225e+002,1.239703e-001
9.044509e+002,1.246534e-001
9.063794e+002,1.253350e-001
9.083079e+002,1.270606e-001
9.102363e+002,1.292433e-001
9.121648e+002,1.309966e-001
9.140933e+002,1.323107e-001
9.160217e+002,1.331422e-001
9.179502e+002,1.336032e-001
9.198787e+002,1.336240e-001
9.218071e+002,1.336222e-001
9.237356e+002,1.335155e-001
9.256641e+002,1.337448e-001
9.275925e+002,1.336493e-001
9.295210e+002,1.335091e-001
9.314495e+002,1.331642e-001
9.333779e+002,1.327118e-001
9.353064e+002,1.328651e-001
9.372349e+002,1.331669e-001
9.391633e+002,1.339034e-001
9.410918e+002,1.344899e-001
9.430203e+002,1.351436e-001
9.449487e+002,1.363556e-001
9.468772e+002,1.377881e-001
9.488057e+002,1.388622e-001
9.507341e+002,1.397268e-001
9.526626e+002,1.406612e-001
9.545911e+002,1.417722e-001
9.565195e+002,1.431901e-001
9.584480e+002,1.450566e-001
9.603765e+002,1.469447e-001
9.623049e+002,1.484377e-001
9.642334e+002,1.498626e-001
9.661619e+002,1.513534e-001
9.680903e+002,1.525939e-001
9.700188e+002,1.541890e-001
9.719473e+002,1.553455e-001
9.738757e+002,1.554799e-001
9.758042e+002,1.558029e-001
9.777327e+002,1.567859e-001
9.796611e+002,1.579008e-001
9.815896e+002,1.593121e-001
9.835181e+002,1.616045e-001
9.854465e+002,1.638571e-001
9.873750e+002,1.653679e-001
9.893035e+002,1.668061e-001
9.912319e+002,1.683766e-001
9.931604e+002,1.695513e-001
9.950889e+002,1.709224e-001
9.970173e+002,1.719708e-001
9.989458e+002,1.724866e-001
1.000874e+003,1.737723e-001
1.002803e+003,1.760247e-001
1.004731e+003,1.788607e-001
1.006660e+003,1.826630e-001
1.008588e+003,1.860968e-001
1.010517e+003,1.887113e-001
1.012445e+003,1.913453e-001
1.014374e+003,1.950678e-001
1.016302e+003,1.981046e-001
1.018230e+003,2.009172e-001
1.020159e+003,2.049006e-001
1.022087e+003,2.093033e-001
1.024016e+003,2.139167e-001
1.025944e+003,2.186995e-001
1.027873e+003,2.233435e-001
1.029801e+003,2.268337e-001
1.031730e+003,2.285559e-001
1.033658e+003,2.274054e-001
1.035587e+003,2.230493e-001
1.037515e+003,2.169783e-001
1.039444e+003,2.111913e-001
1.041372e+003,2.056152e-001
1.043301e+003,2.004547e-001
1.045229e+003,1.972850e-001
1.047157e+003,1.947021e-001
1.049086e+003,1.925059e-001
1.051014e+003,1.908836e-001
1.052943e+003,1.880490e-001
1.054871e+003,1.851642e-001
1.056800e+003,1.830824e-001
1.058728e+003,1.809124e-001
1.060657e+003,1.790736e-001
1.062585e+003,1.776005e-001
1.064514e+003,1.761486e-001
1.066442e+003,1.759320e-001
1.068371e+003,1.763329e-001
1.070299e+003,1.770422e-001
1.072228e+003,1.780530e-001
1.074156e+003,1.782754e-001
1.076084e+003,1.777698e-001
1.078013e+003,1.772790e-001
1.079941e+003,1.769923e-001
1.081870e+003,1.765938e-001
1.083798e+003,1.755803e-001
1.085727e+003,1.735114e-001
1.087655e+003,1.714150e-001
1.089584e+003,1.704301e-001
1.091512e+003,1.701289e-001
1.093441e+003,1.695724e-001
1.095369e+003,1.683115e-001
1.097298e+003,1.662360e-001
1.099226e+003,1.648756e-001
1.101155e+003,1.648781e-001
1.103083e+003,1.650472e-001
1.105011e+003,1.658783e-001
1.106940e+003,1.679682e-001
1.108868e+003,1.693337e-001
1.110797e+003,1.694798e-001
1.112725e+003,1.695791e-001
1.114654e+003,1.704681e-001
1.116582e+003,1.711601e-001
1.118511e+003,1.725135e-001
1.120439e+003,1.733354e-001
1.122368e+003,1.724173e-001
1.124296e+003,1.695451e-001
1.126225e+003,1.649193e-001
1.128153e+003,1.602415e-001
1.130082e+003,1.569579e-001
1.132010e+003,1.544091e-001
1.133938e+003,1.531994e-001
1.135867e+003,1.527026e-001
1.137795e+003,1.528055e-001
1.139724e+003,1.529162e-001
1.141652e+003,1.533373e-001
1.143581e+003,1.547069e-001
1.145509e+003,1.562692e-001
1.147438e+003,1.584403e-001
1.149366e+003,1.612045e-001
1.151295e+003,1.633542e-001
1.153223e+003,1.632218e-001
1.155152e+003,1.618489e-001
1.157080e+003,1.596361e-001
1.159009e+003,1.575566e-001
1.160937e+003,1.558567e-001
1.162865e+003,1.544277e-001
1.164794e+003,1.541032e-001
1.166722e+003,1.543780e-001
1.168651e+003,1.549819e-001
1.170579e+003,1.556476e-001
1.172508e+003,1.566303e-001
1.174436e+003,1.578986e-001
1.176365e+003,1.592731e-001
1.178293e+003,1.606637e-001
1.180222e+003,1.616351e-001
1.182150e+003,1.630756e-001
1.184079e+003,1.650692e-001
1.186007e+003,1.672598e-001
1.187936e+003,1.693869e-001
1.189864e+003,1.712088e-001
1.191792e+003,1.726803e-001
1.193721e+003,1.741677e-001
1.195649e+003,1.759087e-001
1.197578e+003,1.777039e-001
1.199506e+003,1.797750e-001
1.201435e+003,1.820513e-001
1.203363e+003,1.838783e-001
1.205292e+003,1.848947e-001
1.207220e+003,1.850428e-001
1.209149e+003,1.847211e-001
1.211077e+003,1.834919e-001
1.213006e+003,1.817975e-001
1.214934e+003,1.805216e-001
1.216863e+003,1.794113e-001
1.218791e+003,1.783958e-001
1.220719e+003,1.776122e-001
1.222648e+003,1.766149e-001
1.224576e+003,1.759642e-001
1.226505e+003,1.760355e-001
1.228433e+003,1.767605e-001
1.230362e+003,1.778622e-001
1.232290e+003,1.787215e-001
1.234219e+003,1.785745e-001
1.236147e+003,1.775656e-001
1.238076e+003,1.759824e-001
1.240004e+003,1.739150e-001
1.241933e+003,1.713526e-001
1.243861e+003,1.691554e-001
1.245790e+003,1.671032e-001
1.247718e+003,1.654671e-001
1.249646e+003,1.648725e-001
1.251575e+003,1.645968e-001
1.253503e+003,1.647596e-001
1.255432e+003,1.653545e-001
1.257360e+003,1.661009e-001
1.259289e+003,1.668058e-001
1.261217e+003,1.667725e-001
1.263146e+003,1.667512e-001
1.265074e+003,1.676611e-001
1.267003e+003,1.690078e-001
1.268931e+003,1.702780e-001
1.270860e+003,1.699459e-001
1.272788e+003,1.675930e-001
1.274717e+003,1.636588e-001
1.276645e+003,1.587519e-001
1.278573e+003,1.537564e-001
1.280502e+003,1.487128e-001
1.282430e+003,1.437324e-001
1.284359e+003,1.391164e-001
1.286287e+003,1.345575e-001
1.288216e+003,1.301617e-001
1.290144e+003,1.258817e-001
1.292073e+003,1.220654e-001
1.294001e+003,1.184247e-001
1.295930e+003,1.148239e-001
1.297858e+003,1.116162e-001
1.299787e+003,1.087584e-001
1.301715e+003,1.062103e-001
1.303644e+003,1.040310e-001
1.305572e+003,1.018714e-001
1.307500e+003,9.997902e-002
1.309429e+003,9.860772e-002
1.311357e+003,9.719150e-002
1.313286e+003,9.583367e-002
1.315214e+003,9.491418e-002
1.317143e+003,9.417226e-002
1.319071e+003,9.350615e-002
1.321000e+003,9.273652e-002
1.322928e+003,9.218317e-002
1.324857e+003,9.207863e-002
1.326785e+003,9.160564e-002
1.328714e+003,9.125469e-002
1.330642e+003,9.096555e-002
1.332571e+003,9.085746e-002
1.334499e+003,9.128948e-002
1.336427e+003,9.150434e-002
1.338356e+003,9.160724e-002
1.340284e+003,9.200912e-002
1.342213e+003,9.261118e-002
1.344141e+003,9.368071e-002
1.346070e+003,9.522820e-002
1.347998e+003,9.720140e-002
1.349927e+003,9.942620e-002
1.351855e+003,1.014230e-001
1.353784e+003,1.034961e-001
1.355712e+003,1.055113e-001
1.357641e+003,1.067729e-001
1.359569e+003,1.075831e-001
1.361498e+003,1.081701e-001
1.363426e+003,1.087097e-001
1.365354e+003,1.090487e-001
1.367283e+003,1.087910e-001
1.369211e+003,1.082267e-001
1.371140e+003,1.077255e-001
1.373068e+003,1.074540e-001
1.374997e+003,1.075449e-001
1.376925e+003,1.070145e-001
1.378854e+003,1.051760e-001
1.380782e+003,1.024758e-001
1.382711e+003,9.938788e-002
1.384639e+003,9.629949e-002
1.386568e+003,9.332468e-002
1.388496e+003,9.064998e-002
1.390425e+003,8.859560e-002
1.392353e+003,8.705991e-002
1.394281e+003,8.580147e-002
1.396210e+003,8.480819e-002
1.398138e+003,8.417545e-002
1.400067e+003,8.388588e-002
1.401995e+003,8.391872e-002
1.403924e+003,8.400752e-002
1.405852e+003,8.452471e-002
1.407781e+003,8.500680e-002
1.409709e+003,8.549791e-002
1.411638e+003,8.627469e-002
1.413566e+003,8.687111e-002
1.415495e+003,8.733155e-002
1.417423e+003,8.860105e-002
1.419352e+003,9.046345e-002
1.421280e+003,9.283818e-002
1.423208e+003,9.578095e-002
1.425137e+003,9.881134e-002
1.427065e+003,1.015320e-001
1.428994e+003,1.036014e-001
1.430922e+003,1.048707e-001
1.432851e+003,1.051651e-001
1.434779e+003,1.041805e-001
1.436708e+003,1.029242e-001
1.438636e+003,1.025346e-001
1.440565e+003,1.030831e-001
1.442493e+003,1.041058e-001
1.444422e+003,1.058492e-001
1.446350e+003,1.084048e-001
1.448279e+003,1.105356e-001
1.450207e+003,1.117577e-001
1.452135e+003,1.125188e-001
1.454064e+003,1.123119e-001
1.455992e+003,1.114801e-001
1.457921e+003,1.106154e-001
1.459849e+003,1.105969e-001
1.461778e+003,1.114851e-001
1.463706e+003,1.103009e-001
1.465635e+003,1.057258e-001
1.467563e+003,9.854855e-002
1.469492e+003,8.978556e-002
1.471420e+003,8.156151e-002
1.473349e+003,7.375342e-002
1.475277e+003,6.670942e-002
1.477206e+003,6.191404e-002
1.479134e+003,5.870573e-002
1.481063e+003,5.679664e-002
1.482991e+003,5.556752e-002
1.484919e+003,5.482214e-002
1.486848e+003,5.509146e-002
1.488776e+003,5.607385e-002
1.490705e+003,5.732894e-002
1.492633e+003,5.893716e-002
1.494562e+003,6.115923e-002
1.496490e+003,6.430909e-002
1.498419e+003,6.851395e-002
1.500347e+003,7.379721e-002
1.502276e+003,7.937511e-002
1.504204e+003,8.427187e-002
1.506133e+003,9.027084e-002
1.508061e+003,9.894793e-002
1.509990e+003,1.094464e-001
1.511918e+003,1.195270e-001
1.513846e+003,1.241091e-001
1.515775e+003,1.191482e-001
1.517703e+003,1.053997e-001
1.519632e+003,8.824744e-002
1.521560e+003,7.240129e-002
1.523489e+003,5.999833e-002
1.525417e+003,5.048008e-002
1.527346e+003,4.284595e-002
1.529274e+003,3.677373e-002
1.531203e+003,3.246786e-002
1.533131e+003,2.948170e-002
1.535060e+003,2.769581e-002
1.536988e+003,2.678357e-002
1.538917e+003,2.641095e-002
1.540845e+003,2.643651e-002
1.542773e+003,2.663241e-002
1.544702e+003,2.700862e-002
1.546630e+003,2.762081e-002
1.548559e+003,2.802830e-002
1.550487e+003,2.876760e-002
1.552416e+003,2.991508e-002
1.554344e+003,3.108449e-002
1.556273e+003,3.228087e-002
1.558201e+003,3.333607e-002
1.560130e+003,3.455446e-002
1.562058e+003,3.582547e-002
1.563987e+003,3.686313e-002
1.565915e+003,3.796388e-002
1.567844e+003,3.954895e-002
1.569772e+003,4.102637e-002
1.571700e+003,4.278339e-002
1.573629e+003,4.509623e-002
1.575557e+003,4.764023e-002
1.577486e+003,5.061211e-002
1.579414e+003,5.376462e-002
1.581343e+003,5.701814e-002
1.583271e+003,5.995774e-002
1.585200e+003,6.269846e-002
1.587128e+003,6.535575e-002
1.589057e+003,6.822754e-002
1.590985e+003,7.093345e-002
1.592914e+003,7.341181e-002
1.594842e+003,7.564242e-002
1.596771e+003,7.753337e-002
1.598699e+003,7.877316e-002
1.600627e+003,7.951532e-002
1.602556e+003,7.990823e-002
1.604484e+003,7.958623e-002
1.606413e+003,7.858372e-002
1.608341e+003,7.732729e-002
1.610270e+003,7.594095e-002
1.612198e+003,7.422410e-002
1.614127e+003,7.156127e-002
1.616055e+003,6.840336e-002
1.617984e+003,6.518716e-002
1.619912e+003,6.272127e-002
1.621841e+003,6.062637e-002
1.623769e+003,5.882849e-002
1.625698e+003,5.745906e-002
1.627626e+003,5.623554e-002
1.629554e+003,5.561369e-002
1.631483e+003,5.538553e-002
1.633411e+003,5.506231e-002
1.635340e+003,5.492317e-002
1.637268e+003,5.518867e-002
1.639197e+003,5.513578e-002
1.641125e+003,5.516847e-002
1.643054e+003,5.572104e-002
1.644982e+003,5.632719e-002
1.646911e+003,5.657827e-002
1.648839e+003,5.700991e-002
1.650767e+003,5.783604e-002
1.652696e+003,5.821334e-002
1.654624e+003,5.884309e-002
1.656553e+003,5.974427e-002
1.658481e+003,6.043090e-002
1.660410e+003,6.119452e-002
1.662338e+003,6.191660e-002
1.664267e+003,6.265888e-002
1.666195e+003,6.378552e-002
1.668124e+003,6.519321e-002
1.670052e+003,6.632505e-002
1.671981e+003,6.730621e-002
1.673909e+003,6.889658e-002
1.675838e+003,7.056965e-002
1.677766e+003,7.197967e-002
1.679694e+003,7.380039e-002
1.681623e+003,7.582621e-002
1.683551e+003,7.818846e-002
1.685480e+003,8.081206e-002
1.687408e+003,8.370718e-002
1.689337e+003,8.712655e-002
1.691265e+003,9.061136e-002
1.693194e+003,9.347377e-002
1.695122e+003,9.613194e-002
1.697051e+003,9.870569e-002
1.698979e+003,1.008882e-001
1.700908e+003,1.023692e-001
1.702836e+003,1.035528e-001
1.704765e+003,1.042351e-001
1.706693e+003,1.041473e-001
1.708621e+003,1.034924e-001
1.710550e+003,1.022718e-001
1.712478e+003,1.006152e-001
1.714407e+003,9.864930e-002
1.716335e+003,9.635239e-002
1.718264e+003,9.395147e-002
1.720192e+003,9.130265e-002
1.722121e+003,8.855704e-002
1.724049e+003,8.600262e-002
1.725978e+003,8.380349e-002
1.727906e+003,8.160833e-002
1.729835e+003,7.937320e-002
1.731763e+003,7.773115e-002
1.733692e+003,7.631592e-002
1.735620e+003,7.475738e-002
1.737548e+003,7.282133e-002
1.739477e+003,7.060579e-002
1.741405e+003,6.792500e-002
1.743334e+003,6.478248e-002
1.745262e+003,6.121416e-002
1.747191e+003,5.750986e-002
1.749119e+003,5.392226e-002
1.751048e+003,5.041165e-002
1.752976e+003,4.708783e-002
1.754905e+003,4.408953e-002
1.756833e+003,4.158048e-002
1.758762e+003,3.958314e-002
1.760690e+003,3.741574e-002
1.762619e+003,3.526485e-002
1.764547e+003,3.326767e-002
1.766475e+003,3.153123e-002
1.768404e+003,2.972006e-002
1.770332e+003,2.796013e-002
1.772261e+003,2.644348e-002
1.774189e+003,2.482352e-002
1.776118e+003,2.325656e-002
1.778046e+003,2.173034e-002
1.779975e+003,2.021037e-002
1.781903e+003,1.876153e-002
1.783832e+003,1.744380e-002
1.785760e+003,1.623110e-002
1.787689e+003,1.523793e-002
1.789617e+003,1.421767e-002
1.791546e+003,1.299257e-002
1.793474e+003,1.186014e-002
1.795402e+003,1.077574e-002
1.797331e+003,1.005312e-002
1.799259e+003,9.527802e-003
1.801188e+003,8.763106e-003
1.803116e+003,7.918556e-003
1.805045e+003,7.213110e-003
1.806973e+003,6.467910e-003
1.808902e+003,5.937534e-003
1.810830e+003,5.664397e-003
1.812759e+003,5.280336e-003
1.814687e+003,4.812881e-003
1.816616e+003,4.514771e-003
1.818544e+003,4.301186e-003
1.820473e+003,4.197896e-003
1.822401e+003,4.103393e-003
1.824329e+003,3.968148e-003
1.826258e+003,3.785146e-003
1.828186e+003,3.642014e-003
1.830115e+003,3.526621e-003
1.832043e+003,3.469904e-003
1.833972e+003,3.523948e-003
1.835900e+003,3.461020e-003
1.837829e+003,3.473945e-003
1.839757e+003,3.544325e-003
1.841686e+003,3.581307e-003
1.843614e+003,3.664234e-003
1.845543e+003,3.634129e-003
1.847471e+003,3.557320e-003
1.849400e+003,3.583645e-003
1.851328e+003,3.539615e-003
1.853256e+003,3.489210e-003
1.855185e+003,3.500099e-003
1.857113e+003,3.460452e-003
1.859042e+003,3.370518e-003
1.860970e+003,3.246183e-003
1.862899e+003,3.290951e-003
1.864827e+003,3.571819e-003
1.866756e+003,3.707676e-003
1.868684e+003,3.714192e-003
1.870613e+003,3.598212e-003
1.872541e+003,3.436005e-003
1.874470e+003,3.400638e-003
1.876398e+003,3.352019e-003
1.878327e+003,3.385377e-003
1.880255e+003,3.254262e-003
1.882183e+003,3.183528e-003
1.884112e+003,3.420542e-003
1.886040e+003,3.483698e-003
1.887969e+003,3.365041e-003
1.889897e+003,3.127090e-003
1.891826e+003,2.994951e-003
1.893754e+003,3.102795e-003
1.895683e+003,3.262741e-003
1.897611e+003,3.216640e-003
1.899540e+003,3.167707e-003
1.901468e+003,3.138971e-003
1.903397e+003,3.262040e-003
1.905325e+003,3.363004e-003
1.907254e+003,3.367612e-003
1.909182e+003,3.351084e-003
1.911110e+003,3.331617e-003
1.913039e+003,3.324606e-003
1.914967e+003,3.217775e-003
1.916896e+003,3.144711e-003
1.918824e+003,3.268316e-003
1.920753e+003,3.230193e-003
1.922681e+003,3.281203e-003
1.924610e+003,3.217475e-003
1.926538e+003,3.235434e-003
1.928467e+003,3.331885e-003
1.930395e+003,3.372454e-003
1.932324e+003,3.313154e-003
1.934252e+003,3.251524e-003
1.936181e+003,3.476150e-003
1.938109e+003,3.569247e-003
1.940037e+003,3.385979e-003
1.941966e+003,3.257400e-003
1.943894e+003,3.373757e-003
1.945823e+003,3.579068e-003
1.947751e+003,3.536809e-003
1.949680e+003,3.269251e-003
1.951608e+003,3.161900e-003
1.953537e+003,3.242511e-003
1.955465e+003,3.315324e-003
1.957394e+003,3.444321e-003
1.959322e+003,3.396197e-003
1.961251e+003,3.261773e-003
1.963179e+003,3.111304e-003
1.965108e+003,3.162267e-003
1.967036e+003,3.270853e-003
1.968964e+003,3.146380e-003
1.970893e+003,3.198949e-003
1.972821e+003,3.295759e-003
1.974750e+003,3.376729e-003
1.976678e+003,3.385845e-003
1.978607e+003,3.315791e-003
1.980535e+003,3.312519e-003
1.982464e+003,3.285943e-003
1.984392e+003,3.357695e-003
1.986321e+003,3.367679e-003
1.988249e+003,3.423180e-003
1.990178e+003,3.169677e-003
1.992106e+003,3.074997e-003
1.994035e+003,3.304439e-003
1.995963e+003,3.357528e-003
1.997891e+003,3.265145e-003
1.999820e+003,3.138137e-003
2.001748e+003,3.302803e-003
2.003677e+003,3.410156e-003
2.005605e+003,3.514428e-003
2.007534e+003,3.463425e-003
2.009462e+003,3.464627e-003
2.011391e+003,3.500266e-003
2.013319e+003,3.287212e-003
2.015248e+003,3.295559e-003
2.017176e+003,3.372889e-003
2.019105e+003,3.433800e-003
2.021033e+003,3.809312e-003
2.022962e+003,3.760714e-003
2.024890e+003,3.569347e-003
2.026818e+003,3.421644e-003
2.028747e+003,3.423948e-003
2.030675e+003,3.727025e-003
2.032604e+003,3.812822e-003
2.034532e+003,3.616287e-003
2.036461e+003,3.615552e-003
2.038389e+003,3.701393e-003
2.040318e+003,3.745874e-003
2.042246e+003,3.764223e-003
2.044175e+003,3.560360e-003
2.046103e+003,3.486103e-003
2.048032e+003,3.607867e-003
2.049960e+003,3.621833e-003
2.051889e+003,3.580338e-003
2.053817e+003,3.690633e-003
2.055746e+003,3.828299e-003
2.057674e+003,3.679438e-003
2.059603e+003,3.461988e-003
2.061531e+003,3.494855e-003
2.063459e+003,3.690633e-003
2.065388e+003,3.664468e-003
2.067316e+003,3.593334e-003
2.069245e+003,3.540584e-003
2.071173e+003,3.553612e-003
2.073102e+003,3.460419e-003
2.075030e+003,3.431863e-003
2.076959e+003,3.462323e-003
2.078887e+003,3.404646e-003
2.080816e+003,3.314022e-003
2.082744e+003,3.282638e-003
2.084673e+003,3.297462e-003
2.086601e+003,3.355091e-003
2.088530e+003,3.338028e-003
2.090458e+003,3.253360e-003
2.092386e+003,3.369149e-003
2.094315e+003,3.519606e-003
2.096243e+003,3.473712e-003
2.098172e+003,3.283606e-003
2.100100e+003,3.346810e-003
2.102029e+003,3.477319e-003
2.103957e+003,3.233297e-003
2.105886e+003,3.098223e-003
2.107814e+003,3.143643e-003
2.109743e+003,3.033254e-003
2.111671e+003,3.104897e-003
2.113600e+003,3.050138e-003
2.115528e+003,2.901144e-003
2.117457e+003,3.031018e-003
2.119385e+003,3.090748e-003
2.121313e+003,3.195344e-003
2.123242e+003,3.198782e-003
2.125170e+003,3.128091e-003
2.127099e+003,2.982540e-003
2.129027e+003,2.965726e-003
2.130956e+003,3.039226e-003
2.132884e+003,3.041629e-003
2.134813e+003,2.920224e-003
2.136741e+003,2.715290e-003
2.138670e+003,2.853680e-003
2.140598e+003,3.119180e-003
2.142527e+003,3.108768e-003
2.144455e+003,3.208963e-003
2.146384e+003,3.349181e-003
2.148312e+003,3.218509e-003
2.150240e+003,2.998654e-003
2.152169e+003,2.882798e-003
2.154097e+003,2.884766e-003
2.156026e+003,3.070125e-003
2.157954e+003,3.162968e-003
2.159883e+003,3.100359e-003
2.161811e+003,3.193842e-003
2.163740e+003,3.054075e-003
2.165668e+003,2.791449e-003
2.167597e+003,2.836237e-003
2.169525e+003,3.135400e-003
2.171454e+003,3.168141e-003
2.173382e+003,3.099391e-003
2.175311e+003,3.027014e-003
2.177239e+003,2.974266e-003
2.179167e+003,3.058746e-003
2.181096e+003,3.039727e-003
2.183024e+003,2.942641e-003
2.184953e+003,2.904346e-003
2.186881e+003,2.757569e-003
2.188810e+003,2.813126e-003
2.190738e+003,2.941239e-003
2.192667e+003,2.969229e-003
2.194595e+003,2.868122e-003
2.196524e+003,2.844208e-003
2.198452e+003,2.806056e-003
2.200381e+003,2.748166e-003
2.202309e+003,2.826532e-003
2.204238e+003,2.871991e-003
2.206166e+003,2.788314e-003
2.208094e+003,2.763671e-003
2.210023e+003,2.908048e-003
2.211951e+003,2.962156e-003
2.213880e+003,2.797052e-003
2.215808e+003,2.698652e-003
2.217737e+003,2.876494e-003
2.219665e+003,2.990080e-003
2.221594e+003,2.953916e-003
2.223522e+003,3.046000e-003
2.225451e+003,2.900910e-003
2.227379e+003,2.746199e-003
2.229308e+003,2.896307e-003
2.231236e+003,2.975601e-003
2.233165e+003,2.962790e-003
2.235093e+003,2.975034e-003
2.237021e+003,3.088946e-003
2.238950e+003,3.009498e-003
2.240878e+003,2.870057e-003
2.242807e+003,2.873225e-003
2.244735e+003,2.876361e-003
2.246664e+003,2.950347e-003
2.248592e+003,2.958086e-003
2.250521e+003,3.067956e-003
2.252449e+003,3.280268e-003
2.254378e+003,3.306309e-003
2.256306e+003,3.190638e-003
2.258235e+003,3.096354e-003
2.260163e+003,3.064653e-003
2.262092e+003,2.903412e-003
2.264020e+003,2.927796e-003
2.265948e+003,3.264510e-003
2.267877e+003,3.363572e-003
2.269805e+003,3.188835e-003
2.271734e+003,3.001691e-003
2.273662e+003,2.935235e-003
2.275591e+003,3.026781e-003
2.277519e+003,3.126022e-003
2.279448e+003,3.139138e-003
2.281376e+003,3.139138e-003
2.283305e+003,3.151387e-003
2.285233e+003,3.274225e-003
2.287162e+003,3.393993e-003
2.289090e+003,3.370284e-003
2.291019e+003,3.457045e-003
2.292947e+003,3.514228e-003
2.294875e+003,3.574224e-003
2.296804e+003,3.445556e-003
2.298732e+003,3.379100e-003
2.300661e+003,3.543958e-003
2.302589e+003,3.610507e-003
2.304518e+003,3.460085e-003
2.306446e+003,3.562064e-003
2.308375e+003,3.712354e-003
2.310303e+003,3.616721e-003
2.312232e+003,3.589058e-003
2.314160e+003,3.679940e-003
2.316089e+003,3.723917e-003
2.318017e+003,3.872626e-003
2.319946e+003,3.837692e-003
2.321874e+003,3.774718e-003
2.323802e+003,3.877272e-003
2.325731e+003,3.802092e-003
2.327659e+003,3.604827e-003
2.329588e+003,3.543189e-003
2.331516e+003,3.671586e-003
2.333445e+003,3.851765e-003
2.335373e+003,3.712689e-003
2.337302e+003,3.509852e-003
2.339230e+003,3.643484e-003
2.341159e+003,3.718604e-003
2.343087e+003,3.698386e-003
2.345016e+003,3.684952e-003
2.346944e+003,3.641012e-003
2.348873e+003,3.564236e-003
2.350801e+003,3.686356e-003
2.352729e+003,3.767966e-003
2.354658e+003,3.911039e-003
2.356586e+003,4.016736e-003
2.358515e+003,4.096569e-003
2.360443e+003,3.910170e-003
2.362372e+003,3.760814e-003
2.364300e+003,3.753795e-003
2.366229e+003,3.554013e-003
2.368157e+003,3.639909e-003
2.370086e+003,4.116538e-003
2.372014e+003,4.229713e-003
2.373943e+003,3.934443e-003
2.375871e+003,3.816599e-003
2.377800e+003,3.929829e-003
2.379728e+003,4.012723e-003
2.381656e+003,3.989750e-003
2.383585e+003,3.942401e-003
2.385513e+003,3.897934e-003
2.387442e+003,4.043491e-003
2.389370e+003,4.069544e-003
2.391299e+003,4.181904e-003
2.393227e+003,4.274382e-003
2.395156e+003,3.998410e-003
2.397084e+003,3.624673e-003
2.399013e+003,3.853637e-003
2.400941e+003,4.195487e-003
2.402870e+003,4.114364e-003
2.404798e+003,4.112224e-003
2.406727e+003,4.350414e-003
2.408655e+003,4.434292e-003
2.410583e+003,4.322704e-003
2.412512e+003,4.316914e-003
2.414440e+003,4.509314e-003
2.416369e+003,4.517349e-003
2.418297e+003,4.469341e-003
2.420226e+003,4.294761e-003
2.422154e+003,4.336659e-003
2.424083e+003,4.590443e-003
2.426011e+003,4.785946e-003
2.427940e+003,4.698617e-003
2.429868e+003,4.488457e-003
2.431797e+003,4.358781e-003
2.433725e+003,4.425555e-003
2.435654e+003,4.582239e-003
2.437582e+003,4.403798e-003
2.439510e+003,4.315944e-003
2.441439e+003,4.457122e-003
2.443367e+003,4.627614e-003
2.445296e+003,4.495521e-003
2.447224e+003,4.397138e-003
2.449153e+003,4.571390e-003
2.451081e+003,4.554983e-003
2.453010e+003,4.533453e-003
2.454938e+003,4.465491e-003
2.456867e+003,4.559805e-003
2.458795e+003,4.834525e-003
2.460724e+003,4.950200e-003
2.462652e+003,4.906500e-003
2.464581e+003,4.921747e-003
2.466509e+003,4.819750e-003
2.468438e+003,4.695736e-003
2.470366e+003,4.889946e-003
2.472294e+003,5.094367e-003
2.474223e+003,5.121221e-003
2.476151e+003,5.120148e-003
2.478080e+003,5.232612e-003
2.480008e+003,5.306162e-003
2.481937e+003,5.031679e-003
2.483865e+003,4.944971e-003
2.485794e+003,5.152470e-003
2.487722e+003,5.347655e-003
2.489651e+003,5.262360e-003
2.491579e+003,5.082533e-003
2.493508e+003,5.279799e-003
2.495436e+003,5.550580e-003
2.497365e+003,5.482391e-003
2.499293e+003,5.345910e-003
2.501221e+003,5.350976e-003
2.503150e+003,5.501417e-003
2.505078e+003,5.587732e-003
2.507007e+003,5.572428e-003
2.508935e+003,5.373854e-003
2.510864e+003,5.381033e-003
2.512792e+003,5.759072e-003
2.514721e+003,5.863675e-003
2.516649e+003,5.804336e-003
2.518578e+003,5.870896e-003
2.520506e+003,5.867067e-003
2.522435e+003,5.861694e-003
2.524363e+003,5.789158e-003
2.526292e+003,5.800709e-003
2.528220e+003,6.016680e-003
2.530148e+003,6.359362e-003
2.532077e+003,6.406873e-003
2.534005e+003,6.244824e-003
2.535934e+003,6.124571e-003
2.537862e+003,5.964205e-003
2.539791e+003,5.979725e-003
2.541719e+003,6.207884e-003
2.543648e+003,6.397761e-003
2.545576e+003,6.410438e-003
2.547505e+003,6.262573e-003
2.549433e+003,6.256253e-003
2.551362e+003,6.496901e-003
2.553290e+003,6.599394e-003
2.555219e+003,6.457787e-003
2.557147e+003,6.524179e-003
2.559075e+003,6.483549e-003
2.561004e+003,6.066707e-003
2.562932e+003,6.025079e-003
2.564861e+003,6.137273e-003
2.566789e+003,6.204120e-003
2.568718e+003,6.449245e-003
2.570646e+003,6.765547e-003
2.572575e+003,6.781937e-003
2.574503e+003,6.618671e-003
2.576432e+003,6.471172e-003
2.578360e+003,6.550012e-003
2.580289e+003,6.939844e-003
2.582217e+003,6.957351e-003
2.584146e+003,6.902003e-003
2.586074e+003,6.997992e-003
2.588002e+003,6.889783e-003
2.589931e+003,6.650263e-003
2.591859e+003,6.725299e-003
2.593788e+003,6.911261e-003
2.595716e+003,6.974759e-003
2.597645e+003,7.053050e-003
2.599573e+003,6.993716e-003
2.601502e+003,6.896751e-003
2.603430e+003,7.162377e-003
2.605359e+003,7.231808e-003
2.607287e+003,7.140382e-003
2.609216e+003,7.242117e-003
2.611144e+003,7.180568e-003
2.613073e+003,7.095349e-003
2.615001e+003,7.101277e-003
2.616929e+003,7.049076e-003
2.618858e+003,7.226687e-003
2.620786e+003,7.157493e-003
2.622715e+003,7.074199e-003
2.624643e+003,7.331678e-003
2.626572e+003,7.348695e-003
2.628500e+003,7.167195e-003
2.630428e+003,7.270958e-003
2.632357e+003,7.512910e-003
2.634285e+003,7.511393e-003
2.636214e+003,7.592512e-003
2.638142e+003,7.801279e-003
2.640071e+003,7.760159e-003
2.641999e+003,7.722516e-003
2.643928e+003,7.582734e-003
2.645856e+003,7.542612e-003
2.647785e+003,7.773179e-003
2.649713e+003,7.976262e-003
2.651642e+003,8.050582e-003
2.653570e+003,7.852390e-003
2.655499e+003,7.564595e-003
2.657427e+003,7.447783e-003
2.659355e+003,7.783569e-003
2.661284e+003,8.115327e-003
2.663212e+003,8.080185e-003
2.665141e+003,7.642688e-003
2.667069e+003,7.531790e-003
2.668998e+003,7.616082e-003
2.670926e+003,7.738908e-003
2.672855e+003,8.068844e-003
2.674783e+003,7.977005e-003
2.676712e+003,7.605899e-003
2.678640e+003,7.617363e-003
2.680569e+003,7.676277e-003
2.682497e+003,7.770616e-003
2.684426e+003,7.638135e-003
2.686354e+003,7.695298e-003
2.688282e+003,8.242313e-003
2.690211e+003,8.465245e-003
2.692139e+003,8.272470e-003
2.694068e+003,7.913360e-003
2.695996e+003,7.660426e-003
2.697925e+003,7.853436e-003
2.699853e+003,8.181567e-003
2.701782e+003,8.243766e-003
2.703710e+003,8.056894e-003
2.705639e+003,7.908299e-003
2.707567e+003,8.076236e-003
2.709496e+003,8.071003e-003
2.711424e+003,8.159284e-003
2.713353e+003,8.427034e-003
2.715281e+003,8.542284e-003
2.717209e+003,8.451190e-003
2.719138e+003,8.508088e-003
2.721066e+003,8.825758e-003
2.722995e+003,8.805944e-003
2.724923e+003,8.651278e-003
2.726852e+003,8.815682e-003
2.728780e+003,9.153103e-003
2.730709e+003,9.079643e-003
2.732637e+003,8.960191e-003
2.734566e+003,8.886797e-003
2.736494e+003,8.886459e-003
2.738423e+003,8.853047e-003
2.740351e+003,8.823764e-003
2.742280e+003,8.779977e-003
2.744208e+003,8.812199e-003
2.746136e+003,8.559553e-003
2.748065e+003,8.375518e-003
2.749993e+003,8.502580e-003
2.751922e+003,8.582432e-003
2.753850e+003,8.526943e-003
2.755779e+003,8.530254e-003
2.757707e+003,8.552118e-003
2.759636e+003,8.648270e-003
2.761564e+003,8.861772e-003
2.763493e+003,9.120584e-003
2.765421e+003,9.317223e-003
2.767350e+003,9.376943e-003
2.769278e+003,9.140447e-003
2.771207e+003,9.022636e-003
2.773135e+003,9.178889e-003
2.775063e+003,9.435079e-003
2.776992e+003,9.497966e-003
2.778920e+003,9.685255e-003
2.780849e+003,9.494883e-003
2.782777e+003,9.353582e-003
2.784706e+003,9.994395e-003
2.786634e+003,1.052429e-002
2.788563e+003,1.053929e-002
2.790491e+003,1.073301e-002
2.792420e+003,1.056991e-002
2.794348e+003,1.067595e-002
2.796277e+003,1.099878e-002
2.798205e+003,1.125166e-002
2.800134e+003,1.137743e-002
2.802062e+003,1.176260e-002
2.803990e+003,1.230140e-002
2.805919e+003,1.264110e-002
2.807847e+003,1.284538e-002
2.809776e+003,1.320131e-002
2.811704e+003,1.379229e-002
2.813633e+003,1.420641e-002
2.815561e+003,1.450632e-002
2.817490e+003,1.523789e-002
2.819418e+003,1.619496e-002
2.821347e+003,1.679122e-002
2.823275e+003,1.733069e-002
2.825204e+003,1.848160e-002
2.827132e+003,1.982385e-002
2.829061e+003,2.112517e-002
2.830989e+003,2.234630e-002
2.832917e+003,2.407903e-002
2.834846e+003,2.609778e-002
2.836774e+003,2.798229e-002
2.838703e+003,3.064252e-002
2.840631e+003,3.392529e-002
2.842560e+003,3.814020e-002
2.844488e+003,4.445118e-002
2.846417e+003,5.219370e-002
2.848345e+003,5.730274e-002
2.850274e+003,5.714178e-002
2.852202e+003,5.453200e-002
2.854131e+003,5.152068e-002
2.856059e+003,4.900128e-002
2.857988e+003,4.677114e-002
2.859916e+003,4.469284e-002
2.861844e+003,4.281871e-002
2.863773e+003,4.170075e-002
2.865701e+003,4.147074e-002
2.867630e+003,4.187947e-002
2.869558e+003,4.273023e-002
2.871487e+003,4.283286e-002
2.873415e+003,4.208323e-002
2.875344e+003,4.081521e-002
2.877272e+003,3.991687e-002
2.879201e+003,3.996307e-002
2.881129e+003,4.018734e-002
2.883058e+003,4.054216e-002
2.884986e+003,4.121144e-002
2.886915e+003,4.216220e-002
2.888843e+003,4.381639e-002
2.890771e+003,4.548617e-002
2.892700e+003,4.666391e-002
2.894628e+003,4.801288e-002
2.896557e+003,4.976441e-002
2.898485e+003,5.163400e-002
2.900414e+003,5.327682e-002
2.902342e+003,5.507668e-002
2.904271e+003,5.712776e-002
2.906199e+003,5.995888e-002
2.908128e+003,6.340327e-002
2.910056e+003,6.770500e-002
2.911985e+003,7.404414e-002
2.913913e+003,8.079087e-002
2.915842e+003,8.535794e-002
2.917770e+003,8.695942e-002
2.919698e+003,8.676962e-002
2.921627e+003,8.575570e-002
2.923555e+003,8.478325e-002
2.925484e+003,8.346296e-002
2.927412e+003,8.089848e-002
2.929341e+003,7.777364e-002
2.931269e+003,7.458790e-002
2.933198e+003,7.163054e-002
2.935126e+003,6.841539e-002
2.937055e+003,6.503881e-002
2.938983e+003,6.233571e-002
2.940912e+003,6.000011e-002
2.942840e+003,5.799013e-002
2.944769e+003,5.597670e-002
2.946697e+003,5.522140e-002
2.948625e+003,5.502861e-002
2.950554e+003,5.467676e-002
2.952482e+003,5.501195e-002
2.954411e+003,5.547493e-002
2.956339e+003,5.439493e-002
2.958268e+003,5.275784e-002
2.960196e+003,5.150180e-002
2.962125e+003,4.990548e-002
2.964053e+003,4.742131e-002
2.965982e+003,4.534131e-002
2.967910e+003,4.348467e-002
2.969839e+003,4.121039e-002
2.971767e+003,3.897695e-002
2.973696e+003,3.695075e-002
2.975624e+003,3.500504e-002
2.977552e+003,3.289355e-002
2.979481e+003,3.079302e-002
2.981409e+003,2.903487e-002
2.983338e+003,2.796341e-002
2.985266e+003,2.651885e-002
2.987195e+003,2.454649e-002
2.989123e+003,2.335406e-002
2.991052e+003,2.290448e-002
2.992980e+003,2.197121e-002
2.994909e+003,2.161314e-002
2.996837e+003,2.138687e-002
2.998766e+003,2.089141e-002
3.000694e+003,2.041140e-002
3.002623e+003,1.994233e-002
3.004551e+003,1.960034e-002
3.006479e+003,1.913600e-002
3.008408e+003,1.888025e-002
3.010336e+003,1.837405e-002
3.012265e+003,1.803391e-002
3.014193e+003,1.767772e-002
3.016122e+003,1.745677e-002
3.018050e+003,1.683187e-002
3.019979e+003,1.665190e-002
3.021907e+003,1.651810e-002
3.023836e+003,1.627940e-002
3.025764e+003,1.641840e-002
3.027693e+003,1.663995e-002
3.029621e+003,1.644276e-002
3.031550e+003,1.558415e-002
3.033478e+003,1.561829e-002
3.035406e+003,1.604345e-002
3.037335e+003,1.618842e-002
3.039263e+003,1.587446e-002
3.041192e+003,1.559559e-002
3.043120e+003,1.534450e-002
3.045049e+003,1.543416e-002
3.046977e+003,1.544155e-002
3.048906e+003,1.567009e-002
3.050834e+003,1.574516e-002
3.052763e+003,1.535895e-002
3.054691e+003,1.528625e-002
3.056620e+003,1.532033e-002
3.058548e+003,1.544474e-002
3.060477e+003,1.538868e-002
3.062405e+003,1.562578e-002
3.064333e+003,1.596758e-002
3.066262e+003,1.644324e-002
3.068190e+003,1.639190e-002
3.070119e+003,1.572190e-002
3.072047e+003,1.541497e-002
3.073976e+003,1.544992e-002
3.075904e+003,1.551506e-002
3.077833e+003,1.535847e-002
3.079761e+003,1.551633e-002
3.081690e+003,1.567102e-002
3.083618e+003,1.569115e-002
3.085547e+003,1.578192e-002
3.087475e+003,1.585223e-002
3.089404e+003,1.582316e-002
3.091332e+003,1.554954e-002
3.093260e+003,1.548907e-002
3.095189e+003,1.579934e-002
3.097117e+003,1.621879e-002
3.099046e+003,1.658349e-002
3.100974e+003,1.644768e-002
3.102903e+003,1.606146e-002
3.104831e+003,1.599728e-002
3.106760e+003,1.625291e-002
3.108688e+003,1.657857e-002
3.110617e+003,1.672593e-002
3.112545e+003,1.687389e-002
3.114474e+003,1.721780e-002
3.116402e+003,1.715220e-002
3.118331e+003,1.719302e-002
3.120259e+003,1.705732e-002
3.122188e+003,1.691374e-002
3.124116e+003,1.748716e-002
3.126044e+003,1.771137e-002
3.127973e+003,1.780018e-002
3.129901e+003,1.801122e-002
3.131830e+003,1.836769e-002
3.133758e+003,1.872417e-002
3.135687e+003,1.873832e-002
3.137615e+003,1.865568e-002
3.139544e+003,1.864195e-002
3.141472e+003,1.856334e-002
3.143401e+003,1.877236e-002
3.145329e+003,1.883952e-002
3.147258e+003,1.898948e-002
3.149186e+003,1.906689e-002
3.151115e+003,1.891036e-002
3.153043e+003,1.963245e-002
3.154971e+003,2.018729e-002
3.156900e+003,2.046440e-002
3.158828e+003,2.065929e-002
3.160757e+003,2.063250e-002
3.162685e+003,2.080811e-002
3.164614e+003,2.072793e-002
3.166542e+003,2.052967e-002
3.168471e+003,2.074569e-002
3.170399e+003,2.097920e-002
3.172328e+003,2.137260e-002
3.174256e+003,2.181162e-002
3.176185e+003,2.203434e-002
3.178113e+003,2.228543e-002
3.180042e+003,2.188709e-002
3.181970e+003,2.163755e-002
3.183898e+003,2.207014e-002
3.185827e+003,2.245054e-002
3.187755e+003,2.308978e-002
3.189684e+003,2.315041e-002
3.191612e+003,2.334948e-002
3.193541e+003,2.350276e-002
3.195469e+003,2.353375e-002
3.197398e+003,2.394978e-002
3.199326e+003,2.437395e-002
3.201255e+003,2.441254e-002
3.203183e+003,2.454463e-002
3.205112e+003,2.455038e-002
3.207040e+003,2.487573e-002
3.208969e+003,2.489924e-002
3.210897e+003,2.508181e-002
3.212825e+003,2.588310e-002
3.214754e+003,2.627389e-002
3.216682e+003,2.581238e-002
3.218611e+003,2.549132e-002
3.220539e+003,2.568324e-002
3.222468e+003,2.654111e-002
3.224396e+003,2.780125e-002
3.226325e+003,2.752432e-002
3.228253e+003,2.705171e-002
3.230182e+003,2.674728e-002
3.232110e+003,2.679506e-002
3.234039e+003,2.699790e-002
3.235967e+003,2.725039e-002
3.237896e+003,2.773533e-002
3.239824e+003,2.820151e-002
3.241752e+003,2.856524e-002
3.243681e+003,2.825303e-002
3.245609e+003,2.816778e-002
3.247538e+003,2.861472e-002
3.249466e+003,2.915040e-002
3.251395e+003,2.954663e-002
3.253323e+003,2.936168e-002
3.255252e+003,2.941238e-002
3.257180e+003,2.951915e-002
3.259109e+003,3.004942e-002
3.261037e+003,3.061340e-002
3.262966e+003,3.038740e-002
3.264894e+003,3.029971e-002
3.266823e+003,3.056771e-002
3.268751e+003,3.099712e-002
3.270679e+003,3.148670e-002
3.272608e+003,3.141025e-002
3.274536e+003,3.145463e-002
3.276465e+003,3.217410e-002
3.278393e+003,3.253675e-002
3.280322e+003,3.226456e-002
3.282250e+003,3.202979e-002
3.284179e+003,3.172275e-002
3.286107e+003,3.192269e-002
3.288036e+003,3.257578e-002
3.289964e+003,3.297290e-002
3.291893e+003,3.315196e-002
3.293821e+003,3.348453e-002
3.295750e+003,3.361651e-002
3.297678e+003,3.402400e-002
3.299606e+003,3.459375e-002
3.301535e+003,3.456602e-002
3.303463e+003,3.490890e-002
3.305392e+003,3.540686e-002
3.307320e+003,3.490132e-002
3.309249e+003,3.414919e-002
3.311177e+003,3.427334e-002
3.313106e+003,3.449534e-002
3.315034e+003,3.483806e-002
3.316963e+003,3.551458e-002
3.318891e+003,3.599945e-002
3.320820e+003,3.588380e-002
3.322748e+003,3.542272e-002
3.324677e+003,3.469006e-002
3.326605e+003,3.470797e-002
3.328533e+003,3.553382e-002
3.330462e+003,3.539956e-002
3.332390e+003,3.567411e-002
3.334319e+003,3.630226e-002
3.336247e+003,3.658289e-002
3.338176e+003,3.634588e-002
3.340104e+003,3.559434e-002
3.342033e+003,3.500094e-002
3.343961e+003,3.551957e-002
3.345890e+003,3.628057e-002
3.347818e+003,3.610745e-002
3.349747e+003,3.655593e-002
3.351675e+003,3.709613e-002
3.353604e+003,3.761738e-002
3.355532e+003,3.835152e-002
3.357460e+003,3.748119e-002
3.359389e+003,3.660502e-002
3.361317e+003,3.716048e-002
3.363246e+003,3.740212e-002
3.365174e+003,3.746598e-002
3.367103e+003,3.780365e-002
3.369031e+003,3.882022e-002
3.370960e+003,3.864598e-002
3.372888e+003,3.847665e-002
3.374817e+003,3.855240e-002
3.376745e+003,3.784927e-002
3.378674e+003,3.828902e-002
3.380602e+003,3.859353e-002
3.382531e+003,3.815518e-002
3.384459e+003,3.749155e-002
3.386387e+003,3.757254e-002
3.388316e+003,3.737342e-002
3.390244e+003,3.645621e-002
3.392173e+003,3.671452e-002
3.394101e+003,3.774448e-002
3.396030e+003,3.779830e-002
3.397958e+003,3.761720e-002
3.399887e+003,3.667529e-002
3.401815e+003,3.592130e-002
3.403744e+003,3.579571e-002
3.405672e+003,3.641470e-002
3.407601e+003,3.654263e-002
3.409529e+003,3.632805e-002
3.411458e+003,3.698196e-002
3.413386e+003,3.720650e-002
3.415314e+003,3.694173e-002
3.417243e+003,3.638800e-002
3.419171e+003,3.554978e-002
3.421100e+003,3.534036e-002
3.423028e+003,3.589294e-002
3.424957e+003,3.546758e-002
3.426885e+003,3.465662e-002
3.428814e+003,3.464933e-002
3.430742e+003,3.454746e-002
3.432671e+003,3.415937e-002
3.434599e+003,3.438798e-002
3.436528e+003,3.391057e-002
3.438456e+003,3.294051e-002
3.440385e+003,3.257039e-002
3.442313e+003,3.247740e-002
3.444241e+003,3.245472e-002
3.446170e+003,3.222167e-002
3.448098e+003,3.174677e-002
3.450027e+003,3.144975e-002
3.451955e+003,3.126481e-002
3.453884e+003,3.108919e-002
3.455812e+003,3.023974e-002
3.457741e+003,2.943393e-002
3.459669e+003,2.980320e-002
3.461598e+003,2.989232e-002
3.463526e+003,2.975012e-002
3.465455e+003,2.872002e-002
3.467383e+003,2.818207e-002
3.469312e+003,2.814014e-002
3.471240e+003,2.796599e-002
3.473168e+003,2.727329e-002
3.475097e+003,2.722107e-002
3.477025e+003,2.681145e-002
3.478954e+003,2.557024e-002
3.480882e+003,2.488885e-002
3.482811e+003,2.484661e-002
3.484739e+003,2.484608e-002
3.486668e+003,2.435054e-002
3.488596e+003,2.427082e-002
3.490525e+003,2.339036e-002
3.492453e+003,2.218928e-002
3.494382e+003,2.228557e-002
3.496310e+003,2.212529e-002
3.498239e+003,2.113338e-002
3.500167e+003,2.067097e-002
3.502095e+003,2.050737e-002
3.504024e+003,1.994560e-002
3.505952e+003,1.918468e-002
3.507881e+003,1.797068e-002
3.509809e+003,1.709995e-002
3.511738e+003,1.688894e-002
3.513666e+003,1.723152e-002
3.515595e+003,1.668292e-002
3.517523e+003,1.586141e-002
3.519452e+003,1.589450e-002
3.521380e+003,1.572365e-002
3.523309e+003,1.423226e-002
3.525237e+003,1.347199e-002
3.527166e+003,1.320818e-002
3.529094e+003,1.315247e-002
3.531022e+003,1.244568e-002
3.532951e+003,1.162508e-002
3.534879e+003,1.116935e-002
3.536808e+003,1.046108e-002
3.538736e+003,1.005590e-002
3.540665e+003,9.167823e-003
3.542593e+003,8.958804e-003
3.544522e+003,8.823256e-003
3.546450e+003,7.393417e-003
3.548379e+003,6.442923e-003
3.550307e+003,6.271582e-003
3.552236e+003,6.089556e-003
3.554164e+003,5.694443e-003
3.556093e+003,5.485981e-003
3.558021e+003,4.611875e-003
3.559949e+003,4.172604e-003
3.561878e+003,4.576814e-003
3.563806e+003,4.067872e-003
3.565735e+003,2.772308e-003
3.567663e+003,1.816391e-003
3.569592e+003,9.052370e-004
3.571520e+003,3.024866e-004
3.573449e+003,4.128806e-004
3.575377e+003,6.572137e-004
3.577306e+003,-3.336972e-004
3.579234e+003,-1.048916e-003
3.581163e+003,-1.015133e-003
3.583091e+003,-1.076151e-003
3.585020e+003,-1.533945e-003
3.586948e+003,-1.832483e-003
3.588876e+003,-1.727977e-003
3.590805e+003,-1.817371e-003
3.592733e+003,-1.860264e-003
3.594662e+003,-2.305367e-003
3.596590e+003,-2.840055e-003
3.598519e+003,-2.409043e-003
3.600447e+003,-2.210667e-003
3.602376e+003,-2.416193e-003
3.604304e+003,-2.580188e-003
3.606233e+003,-3.328055e-003
3.608161e+003,-3.557866e-003
3.610090e+003,-3.084107e-003
3.612018e+003,-2.906610e-003
3.613947e+003,-3.504492e-003
3.615875e+003,-3.664922e-003
3.617803e+003,-3.046172e-003
3.619732e+003,-2.959005e-003
3.621660e+003,-3.468599e-003
3.623589e+003,-3.765482e-003
3.625517e+003,-3.594573e-003
3.627446e+003,-3.016855e-003
3.629374e+003,-3.084831e-003
3.631303e+003,-3.416989e-003
3.633231e+003,-3.887035e-003
3.635160e+003,-3.603610e-003
3.637088e+003,-3.243641e-003
3.639017e+003,-3.388420e-003
3.640945e+003,-3.384113e-003
3.642874e+003,-3.395521e-003
3.644802e+003,-3.770179e-003
3.646730e+003,-3.588658e-003
3.648659e+003,-3.501731e-003
3.650587e+003,-4.041317e-003
3.652516e+003,-4.201189e-003
3.654444e+003,-3.850090e-003
3.656373e+003,-3.580048e-003
3.658301e+003,-3.295633e-003
3.660230e+003,-3.339892e-003
3.662158e+003,-3.478558e-003
3.664087e+003,-3.158059e-003
3.666015e+003,-3.259065e-003
3.667944e+003,-3.177038e-003
3.669872e+003,-2.964270e-003
3.671801e+003,-3.113880e-003
3.673729e+003,-3.192695e-003
3.675657e+003,-3.152204e-003
3.677586e+003,-3.680561e-003
3.679514e+003,-4.126298e-003
3.681443e+003,-3.914685e-003
3.683371e+003,-3.322859e-003
3.685300e+003,-3.069105e-003
3.687228e+003,-3.207003e-003
3.689157e+003,-4.049983e-003
3.691085e+003,-4.706837e-003
3.693014e+003,-4.373664e-003
3.694942e+003,-3.449501e-003
3.696871e+003,-3.284189e-003
3.698799e+003,-3.669884e-003
3.700728e+003,-3.639393e-003
3.702656e+003,-3.573936e-003
3.704584e+003,-3.636994e-003
3.706513e+003,-3.422282e-003
3.708441e+003,-3.564208e-003
3.710370e+003,-3.874425e-003
3.712298e+003,-3.513793e-003
3.714227e+003,-3.005042e-003
3.716155e+003,-2.920697e-003
3.718084e+003,-3.264491e-003
3.720012e+003,-3.276363e-003
3.721941e+003,-3.672643e-003
3.723869e+003,-3.715419e-003
3.725798e+003,-3.172269e-003
3.727726e+003,-2.848647e-003
3.729655e+003,-3.300828e-003
3.731583e+003,-3.295633e-003
3.733511e+003,-3.182630e-003
3.735440e+003,-3.369055e-003
3.737368e+003,-3.471261e-003
3.739297e+003,-3.419356e-003
3.741225e+003,-3.163980e-003
3.743154e+003,-2.999284e-003
3.745082e+003,-3.058313e-003
3.747011e+003,-2.915991e-003
3.748939e+003,-3.205259e-003
3.750868e+003,-3.468204e-003
3.752796e+003,-3.407488e-003
3.754725e+003,-3.127236e-003
3.756653e+003,-2.634795e-003
3.758582e+003,-2.857403e-003
3.760510e+003,-3.255316e-003
3.762438e+003,-3.170361e-003
3.764367e+003,-2.981218e-003
3.766295e+003,-3.096806e-003
3.768224e+003,-3.180624e-003
3.770152e+003,-2.643226e-003
3.772081e+003,-3.059267e-003
3.774009e+003,-3.731746e-003
3.775938e+003,-3.364650e-003
3.777866e+003,-2.837685e-003
3.779795e+003,-2.761407e-003
3.781723e+003,-2.790544e-003
3.783652e+003,-2.588060e-003
3.785580e+003,-2.325043e-003
3.787509e+003,-2.519545e-003
3.789437e+003,-3.586982e-003
3.791365e+003,-3.988003e-003
3.793294e+003,-3.877643e-003
3.795222e+003,-3.590301e-003
3.797151e+003,-3.357844e-003
3.799079e+003,-3.605614e-003
3.801008e+003,-3.046304e-003
3.802936e+003,-2.672206e-003
3.804865e+003,-2.748336e-003
3.806793e+003,-3.245943e-003
3.808722e+003,-3.285373e-003
3.810650e+003,-2.964040e-003
3.812579e+003,-2.952653e-003
3.814507e+003,-3.244364e-003
3.816436e+003,-3.891042e-003
3.818364e+003,-4.488324e-003
3.820292e+003,-4.371334e-003
3.822221e+003,-3.779541e-003
3.824149e+003,-3.678064e-003
3.826078e+003,-3.233347e-003
3.828006e+003,-3.005766e-003
3.829935e+003,-3.098813e-003
3.831863e+003,-3.006885e-003
3.833792e+003,-2.802066e-003
3.835720e+003,-2.491906e-003
3.837649e+003,-2.772338e-003
3.839577e+003,-2.990958e-003
3.841506e+003,-3.334795e-003
3.843434e+003,-3.623851e-003
3.845363e+003,-3.452788e-003
3.847291e+003,-3.515173e-003
3.849219e+003,-3.888381e-003
3.851148e+003,-3.594376e-003
3.853076e+003,-3.037321e-003
3.855005e+003,-2.994084e-003
3.856933e+003,-2.803613e-003
3.858862e+003,-2.752879e-003
3.860790e+003,-3.267122e-003
3.862719e+003,-3.360408e-003
3.864647e+003,-3.053674e-003
3.866576e+003,-2.618263e-003
3.868504e+003,-2.748863e-003
3.870433e+003,-3.032912e-003
3.872361e+003,-3.008826e-003
3.874290e+003,-3.150888e-003
3.876218e+003,-2.478596e-003
3.878146e+003,-2.104339e-003
3.880075e+003,-2.778790e-003
3.882003e+003,-2.769045e-003
3.883932e+003,-2.433426e-003
3.885860e+003,-2.290865e-003
3.887789e+003,-2.500010e-003
3.889717e+003,-2.983127e-003
3.891646e+003,-3.016296e-003
3.893574e+003,-2.743265e-003
3.895503e+003,-3.009188e-003
3.897431e+003,-3.153947e-003
3.899360e+003,-3.077922e-003
3.901288e+003,-3.186840e-003
3.903217e+003,-2.914345e-003
3.905145e+003,-2.773753e-003
3.907073e+003,-2.540167e-003
3.909002e+003,-2.364491e-003
3.910930e+003,-2.555122e-003
3.912859e+003,-3.013729e-003
3.914787e+003,-3.126447e-003
3.916716e+003,-3.098649e-003
3.918644e+003,-2.930538e-003
3.920573e+003,-2.491972e-003
3.922501e+003,-2.364755e-003
3.924430e+003,-2.817638e-003
3.926358e+003,-2.828336e-003
3.928287e+003,-3.035281e-003
3.930215e+003,-3.146053e-003
3.932144e+003,-2.480902e-003
3.934072e+003,-2.623927e-003
3.936000e+003,-3.080192e-003
3.937929e+003,-3.318256e-003
3.939857e+003,-3.251665e-003
3.941786e+003,-3.281624e-003
3.943714e+003,-3.370042e-003
3.945643e+003,-3.486315e-003
3.947571e+003,-3.268043e-003
3.949500e+003,-2.935408e-003
3.951428e+003,-3.124407e-003
3.953357e+003,-3.172729e-003
3.955285e+003,-3.372968e-003
3.957214e+003,-3.696430e-003
3.959142e+003,-3.303952e-003
3.961071e+003,-2.895091e-003
3.962999e+003,-3.052094e-003
3.964927e+003,-3.668241e-003
3.966856e+003,-3.142138e-003
3.968784e+003,-3.130888e-003
3.970713e+003,-3.973754e-003
3.972641e+003,-3.454070e-003
3.974570e+003,-2.434678e-003
3.976498e+003,-2.279362e-003
3.978427e+003,-2.455435e-003
3.980355e+003,-3.121052e-003
3.982284e+003,-3.093681e-003
3.984212e+003,-2.822575e-003
3.986141e+003,-3.295238e-003
3.988069e+003,-3.345481e-003
3.989998e+003,-3.099537e-003
3.991926e+003,-2.670198e-003
3.993854e+003,-3.090950e-003
3.995783e+003,-3.041862e-003
