3.991927e+002,0.000000e+000
4.011211e+002,0.000000e+000
4.030496e+002,0.000000e+000
4.049781e+002,0.000000e+000
4.069065e+002,0.000000e+000
4.088350e+002,0.000000e+000
4.107635e+002,0.000000e+000
4.126919e+002,0.000000e+000
4.146204e+002,0.000000e+000
4.165489e+002,0.000000e+000
4.184773e+002,0.000000e+000
4.204058e+002,0.000000e+000
4.223343e+002,0.000000e+000
4.242627e+002,0.000000e+000
4.261912e+002,0.000000e+000
4.281197e+002,0.000000e+000
4.300481e+002,0.000000e+000
4.319766e+002,0.000000e+000
4.339051e+002,0.000000e+000
4.358335e+002,0.000000e+000
4.377620e+002,0.000000e+000
4.396905e+002,0.000000e+000
4.416189e+002,0.000000e+000
4.435474e+002,0.000000e+000
4.454759e+002,0.000000e+000
4.474043e+002,0.000000e+000
4.493328e+002,0.000000e+000
4.512613e+002,0.000000e+000
4.531897e+002,0.000000e+000
4.551182e+002,0.000000e+000
4.570467e+002,0.000000e+000
4.589751e+002,0.000000e+000
4.609036e+002,0.000000e+000
4.628321e+002,0.000000e+000
4.647605e+002,0.000000e+000
4.666890e+002,0.000000e+000
4.686175e+002,0.000000e+000
4.705459e+002,0.000000e+000
4.724744e+002,0.000000e+000
4.744029e+002,0.000000e+000
4.763313e+002,0.000000e+000
4.782598e+002,0.000000e+000
4.801883e+002,0.000000e+000
4.821167e+002,0.000000e+000
4.840452e+002,0.000000e+000
4.859737e+002,0.000000e+000
4.879021e+002,0.000000e+000
4.898306e+002,0.000000e+000
4.917591e+002,0.000000e+000
4.936875e+002,0.000000e+000
4.956160e+002,0.000000e+000
4.975445e+002,0.000000e+000
4.994729e+002,0.000000e+000
5.014014e+002,0.000000e+000
5.033299e+002,0.000000e+000
5.052583e+002,0.000000e+000
5.071868e+002,0.000000e+000
5.091153e+002,0.000000e+000
5.110437e+002,0.000000e+000
5.129722e+002,0.000000e+000
5.149006e+002,0.000000e+000
5.168291e+002,0.000000e+000
5.187576e+002,0.000000e+000
5.206860e+002,0.000000e+000
5.226145e+002,0.000000e+000
5.245430e+002,0.000000e+000
5.264714e+002,0.000000e+000
5.283999e+002,0.000000e+000
5.303284e+002,0.000000e+000
5.322568e+002,0.000000e+000
5.341853e+002,0.000000e+000
5.361138e+002,0.000000e+000
5.380422e+002,0.000000e+000
5.399707e+002,0.000000e+000
5.418992e+002,0.000000e+000
5.438276e+002,0.000000e+000
5.457561e+002,0.000000e+000
5.476846e+002,0.000000e+000
5.496130e+002,0.000000e+000
5.515415e+002,0.000000e+000
5.534700e+002,0.000000e+000
5.553984e+002,0.000000e+000
5.573269e+002,0.000000e+000
5.592554e+002,0.000000e+000
5.611838e+002,0.000000e+000
5.631123e+002,0.000000e+000
5.650408e+002,0.000000e+000
5.669692e+002,0.000000e+000
5.688977e+002,0.000000e+000
5.708262e+002,0.000000e+000
5.727546e+002,0.000000e+000
5.746831e+002,0.000000e+000
5.766116e+002,0.000000e+000
5.785400e+002,0.000000e+000
5.804685e+002,0.000000e+000
5.823970e+002,0.000000e+000
5.843254e+002,0.000000e+000
5.862539e+002,0.000000e+000
5.881824e+002,0.000000e+000
5.901108e+002,0.000000e+000
5.920393e+002,0.000000e+000
5.939678e+002,0.000000e+000
5.958962e+002,0.000000e+000
5.978247e+002,0.000000e+000
5.997532e+002,0.000000e+000
6.016816e+002,0.000000e+000
6.036101e+002,0.000000e+000
6.055386e+002,0.000000e+000
6.074670e+002,0.000000e+000
6.093955e+002,0.000000e+000
6.113240e+002,0.000000e+000
6.132524e+002,0.000000e+000
6.151809e+002,0.000000e+000
6.171094e+002,0.000000e+000
6.190378e+002,0.000000e+000
6.209663e+002,0.000000e+000
6.228948e+002,0.000000e+000
6.248232e+002,0.000000e+000
6.267517e+002,0.000000e+000
6.286802e+002,0.000000e+000
6.306086e+002,0.000000e+000
6.325371e+002,0.000000e+000
6.344656e+002,0.000000e+000
6.363940e+002,0.000000e+000
6.383225e+002,0.000000e+000
6.402510e+002,0.000000e+000
6.421794e+002,0.000000e+000
6.441079e+002,0.000000e+000
6.460364e+002,0.000000e+000
6.479648e+002,0.000000e+000
6.498933e+002,2.508476e-001
6.518218e+002,2.481092e-001
6.537502e+002,2.471674e-001
6.556787e+002,2.469020e-001
6.576072e+002,2.447033e-001
6.595356e+002,2.427241e-001
6.614641e+002,2.404850e-001
6.633926e+002,2.392382e-001
6.653210e+002,2.373497e-001
6.672495e+002,2.355757e-001
6.691780e+002,2.338384e-001
6.711064e+002,2.319912e-001
6.730349e+002,2.308368e-001
6.749634e+002,2.288589e-001
6.768918e+002,2.260757e-001
6.788203e+002,2.235456e-001
6.807488e+002,2.211832e-001
6.826772e+002,2.193861e-001
6.846057e+002,2.180231e-001
6.865342e+002,2.170050e-001
6.884626e+002,2.170255e-001
6.903911e+002,2.169885e-001
6.923196e+002,2.152628e-001
6.942480e+002,2.130031e-001
6.961765e+002,2.119649e-001
6.981050e+002,2.105257e-001
7.000334e+002,2.089150e-001
7.019619e+002,2.083585e-001
7.038904e+002,2.081313e-001
7.058188e+002,2.065019e-001
7.077473e+002,2.053254e-001
7.096758e+002,2.037295e-001
7.116042e+002,2.010020e-001
7.135327e+002,1.983928e-001
7.154612e+002,1.974195e-001
7.173896e+002,1.952956e-001
7.193181e+002,1.918536e-001
7.212466e+002,1.909481e-001
7.231750e+002,1.911313e-001
7.251035e+002,1.906366e-001
7.270320e+002,1.912295e-001
7.289604e+002,1.906056e-001
7.308889e+002,1.892422e-001
7.328174e+002,1.885443e-001
7.347458e+002,1.883725e-001
7.366743e+002,1.883303e-001
7.386028e+002,1.879090e-001
7.405313e+002,1.869278e-001
7.424597e+002,1.873051e-001
7.443882e+002,1.880475e-001
7.463167e+002,1.886890e-001
7.482451e+002,1.891060e-001
7.501736e+002,1.891132e-001
7.521021e+002,1.879744e-001
7.540305e+002,1.874365e-001
7.559590e+002,1.862403e-001
7.578875e+002,1.846219e-001
7.598159e+002,1.831074e-001
7.617444e+002,1.805330e-001
7.636729e+002,1.794980e-001
7.656013e+002,1.793140e-001
7.675298e+002,1.785606e-001
7.694583e+002,1.778882e-001
7.713867e+002,1.765000e-001
7.733152e+002,1.748156e-001
7.752437e+002,1.736748e-001
7.771721e+002,1.723775e-001
7.791006e+002,1.715788e-001
7.810291e+002,1.717079e-001
7.829575e+002,1.703994e-001
7.848860e+002,1.681366e-001
7.868145e+002,1.664429e-001
7.887429e+002,1.648219e-001
7.906714e+002,1.629617e-001
7.925999e+002,1.606050e-001
7.945283e+002,1.592838e-001
7.964568e+002,1.581096e-001
7.983853e+002,1.566233e-001
8.003137e+002,1.565299e-001
8.022422e+002,1.573231e-001
8.041707e+002,1.583478e-001
8.060991e+002,1.601366e-001
8.080276e+002,1.612372e-001
8.099561e+002,1.610292e-001
8.118845e+002,1.611226e-001
8.138130e+002,1.615554e-001
8.157415e+002,1.601573e-001
8.176699e+002,1.581254e-001
8.195984e+002,1.572015e-001
8.215269e+002,1.564642e-001
8.234553e+002,1.557747e-001
8.253838e+002,1.550264e-001
8.273123e+002,1.539942e-001
8.292407e+002,1.544057e-001
8.311692e+002,1.540082e-001
8.330977e+002,1.519439e-001
8.350261e+002,1.496811e-001
8.369546e+002,1.478318e-001
8.388831e+002,1.468389e-001
8.408115e+002,1.463856e-001
8.427400e+002,1.460095e-001
8.446685e+002,1.452827e-001
8.465969e+002,1.456239e-001
8.485254e+002,1.471178e-001
8.504539e+002,1.484109e-001
8.523823e+002,1.501178e-001
8.543108e+002,1.519715e-001
8.562393e+002,1.538190e-001
8.581677e+002,1.548584e-001
8.600962e+002,1.553520e-001
8.620247e+002,1.542105e-001
8.639531e+002,1.514656e-001
8.658816e+002,1.488463e-001
8.678101e+002,1.468720e-001
8.697385e+002,1.458451e-001
8.716670e+002,1.453523e-001
8.735955e+002,1.456631e-001
8.755239e+002,1.458082e-001
8.774524e+002,1.461308e-001
8.793809e+002,1.469241e-001
8.813093e+002,1.488500e-001
8.832378e+002,1.501971e-001
8.851663e+002,1.513185e-001
8.870947e+002,1.531268e-001
8.890232e+002,1.537407e-001
8.909517e+002,1.521784e-001
8.928801e+002,1.507040e-001
8.948086e+002,1.487907e-001
8.967371e+002,1.453578e-001
8.986655e+002,1.418608e-001
9.005940e+002,1.402971e-001
9.025225e+002,1.396753e-001
9.044509e+002,1.391987e-001
9.063794e+002,1.390177e-001
9.083079e+002,1.397688e-001
9.102363e+002,1.409256e-001
9.121648e+002,1.426936e-001
9.140933e+002,1.447020e-001
9.160217e+002,1.461428e-001
9.179502e+002,1.471618e-001
9.198787e+002,1.479466e-001
9.218071e+002,1.480419e-001
9.237356e+002,1.478201e-001
9.256641e+002,1.472749e-001
9.275925e+002,1.461047e-001
9.295210e+002,1.448551e-001
9.314495e+002,1.441259e-001
9.333779e+002,1.430396e-001
9.353064e+002,1.417056e-001
9.372349e+002,1.411540e-001
9.391633e+002,1.415787e-001
9.410918e+002,1.425968e-001
9.430203e+002,1.437398e-001
9.449487e+002,1.450813e-001
9.468772e+002,1.467031e-001
9.488057e+002,1.483354e-001
9.507341e+002,1.492960e-001
9.526626e+002,1.498443e-001
9.545911e+002,1.503430e-001
9.565195e+002,1.509295e-001
9.584480e+002,1.514761e-001
9.603765e+002,1.525036e-001
9.623049e+002,1.542037e-001
9.642334e+002,1.565080e-001
9.661619e+002,1.592543e-001
9.680903e+002,1.620685e-001
9.700188e+002,1.644415e-001
9.719473e+002,1.664960e-001
9.738757e+002,1.679747e-001
9.758042e+002,1.697033e-001
9.777327e+002,1.721322e-001
9.796611e+002,1.750884e-001
9.815896e+002,1.782490e-001
9.835181e+002,1.818592e-001
9.854465e+002,1.857120e-001
9.873750e+002,1.895151e-001
9.893035e+002,1.918839e-001
9.912319e+002,1.933838e-001
9.931604e+002,1.946354e-001
9.950889e+002,1.961591e-001
9.970173e+002,1.973516e-001
9.989458e+002,1.982187e-001
1.000874e+003,1.997775e-001
1.002803e+003,2.026301e-001
1.004731e+003,2.077216e-001
1.006660e+003,2.139140e-001
1.008588e+003,2.194000e-001
1.010517e+003,2.235555e-001
1.012445e+003,2.265995e-001
1.014374e+003,2.293363e-001
1.016302e+003,2.313585e-001
1.018230e+003,2.325323e-001
1.020159e+003,2.343532e-001
1.022087e+003,2.376657e-001
1.024016e+003,2.420374e-001
1.025944e+003,2.467760e-001
1.027873e+003,2.531812e-001
1.029801e+003,2.590195e-001
1.031730e+003,2.627094e-001
1.033658e+003,2.629723e-001
1.035587e+003,2.603076e-001
1.037515e+003,2.561946e-001
1.039444e+003,2.524465e-001
1.041372e+003,2.497856e-001
1.043301e+003,2.485158e-001
1.045229e+003,2.475972e-001
1.047157e+003,2.467799e-001
1.049086e+003,2.450445e-001
1.051014e+003,2.419870e-001
1.052943e+003,2.378521e-001
1.054871e+003,2.329718e-001
1.056800e+003,2.271390e-001
1.058728e+003,2.228974e-001
1.060657e+003,2.200238e-001
1.062585e+003,2.169445e-001
1.064514e+003,2.147179e-001
1.066442e+003,2.137542e-001
1.068371e+003,2.136862e-001
1.070299e+003,2.147422e-001
1.072228e+003,2.161085e-001
1.074156e+003,2.172364e-001
1.076084e+003,2.174684e-001
1.078013e+003,2.170683e-001
1.079941e+003,2.159010e-001
1.081870e+003,2.134871e-001
1.083798e+003,2.110824e-001
1.085727e+003,2.078220e-001
1.087655e+003,2.040379e-001
1.089584e+003,2.009614e-001
1.091512e+003,1.972562e-001
1.093441e+003,1.932106e-001
1.095369e+003,1.904619e-001
1.097298e+003,1.872408e-001
1.099226e+003,1.826816e-001
1.101155e+003,1.791695e-001
1.103083e+003,1.766471e-001
1.105011e+003,1.751000e-001
1.106940e+003,1.740586e-001
1.108868e+003,1.743781e-001
1.110797e+003,1.762021e-001
1.112725e+003,1.765596e-001
1.114654e+003,1.760831e-001
1.116582e+003,1.761026e-001
1.118511e+003,1.761846e-001
1.120439e+003,1.762854e-001
1.122368e+003,1.758134e-001
1.124296e+003,1.743644e-001
1.126225e+003,1.720805e-001
1.128153e+003,1.697936e-001
1.130082e+003,1.679567e-001
1.132010e+003,1.661885e-001
1.133938e+003,1.648085e-001
1.135867e+003,1.645039e-001
1.137795e+003,1.639763e-001
1.139724e+003,1.625604e-001
1.141652e+003,1.603935e-001
1.143581e+003,1.585540e-001
1.145509e+003,1.575672e-001
1.147438e+003,1.571616e-001
1.149366e+003,1.574202e-001
1.151295e+003,1.577393e-001
1.153223e+003,1.579336e-001
1.155152e+003,1.569716e-001
1.157080e+003,1.550576e-001
1.159009e+003,1.532148e-001
1.160937e+003,1.518592e-001
1.162865e+003,1.509334e-001
1.164794e+003,1.508637e-001
1.166722e+003,1.513079e-001
1.168651e+003,1.518293e-001
1.170579e+003,1.529929e-001
1.172508e+003,1.542853e-001
1.174436e+003,1.561686e-001
1.176365e+003,1.585405e-001
1.178293e+003,1.608784e-001
1.180222e+003,1.635792e-001
1.182150e+003,1.666903e-001
1.184079e+003,1.693904e-001
1.186007e+003,1.720515e-001
1.187936e+003,1.752364e-001
1.189864e+003,1.774286e-001
1.191792e+003,1.789969e-001
1.193721e+003,1.809242e-001
1.195649e+003,1.825429e-001
1.197578e+003,1.837579e-001
1.199506e+003,1.859159e-001
1.201435e+003,1.881973e-001
1.203363e+003,1.899733e-001
1.205292e+003,1.914540e-001
1.207220e+003,1.926942e-001
1.209149e+003,1.937958e-001
1.211077e+003,1.945093e-001
1.213006e+003,1.949883e-001
1.214934e+003,1.951910e-001
1.216863e+003,1.950505e-001
1.218791e+003,1.949350e-001
1.220719e+003,1.950740e-001
1.222648e+003,1.950639e-001
1.224576e+003,1.948291e-001
1.226505e+003,1.952431e-001
1.228433e+003,1.961362e-001
1.230362e+003,1.965919e-001
1.232290e+003,1.965234e-001
1.234219e+003,1.964478e-001
1.236147e+003,1.962126e-001
1.238076e+003,1.955601e-001
1.240004e+003,1.940521e-001
1.241933e+003,1.924041e-001
1.243861e+003,1.908169e-001
1.245790e+003,1.894589e-001
1.247718e+003,1.885666e-001
1.249646e+003,1.878728e-001
1.251575e+003,1.876513e-001
1.253503e+003,1.876853e-001
1.255432e+003,1.870859e-001
1.257360e+003,1.865724e-001
1.259289e+003,1.862290e-001
1.261217e+003,1.852237e-001
1.263146e+003,1.840186e-001
1.265074e+003,1.834183e-001
1.267003e+003,1.831482e-001
1.268931e+003,1.833105e-001
1.270860e+003,1.832778e-001
1.272788e+003,1.816303e-001
1.274717e+003,1.786741e-001
1.276645e+003,1.752074e-001
1.278573e+003,1.710808e-001
1.280502e+003,1.663566e-001
1.282430e+003,1.617133e-001
1.284359e+003,1.573926e-001
1.286287e+003,1.531146e-001
1.288216e+003,1.489702e-001
1.290144e+003,1.448960e-001
1.292073e+003,1.405471e-001
1.294001e+003,1.362536e-001
1.295930e+003,1.324292e-001
1.297858e+003,1.289568e-001
1.299787e+003,1.258395e-001
1.301715e+003,1.229499e-001
1.303644e+003,1.203174e-001
1.305572e+003,1.179590e-001
1.307500e+003,1.161092e-001
1.309429e+003,1.146919e-001
1.311357e+003,1.133633e-001
1.313286e+003,1.123832e-001
1.315214e+003,1.113247e-001
1.317143e+003,1.101704e-001
1.319071e+003,1.092502e-001
1.321000e+003,1.087239e-001
1.322928e+003,1.084439e-001
1.324857e+003,1.078373e-001
1.326785e+003,1.076087e-001
1.328714e+003,1.077658e-001
1.330642e+003,1.078185e-001
1.332571e+003,1.076220e-001
1.334499e+003,1.073570e-001
1.336427e+003,1.072596e-001
1.338356e+003,1.074293e-001
1.340284e+003,1.079340e-001
1.342213e+003,1.085565e-001
1.344141e+003,1.093958e-001
1.346070e+003,1.109098e-001
1.347998e+003,1.130259e-001
1.349927e+003,1.151234e-001
1.351855e+003,1.173835e-001
1.353784e+003,1.193841e-001
1.355712e+003,1.215217e-001
1.357641e+003,1.233664e-001
1.359569e+003,1.244610e-001
1.361498e+003,1.248624e-001
1.363426e+003,1.245168e-001
1.365354e+003,1.238853e-001
1.367283e+003,1.235021e-001
1.369211e+003,1.232490e-001
1.371140e+003,1.228413e-001
1.373068e+003,1.224470e-001
1.374997e+003,1.221049e-001
1.376925e+003,1.216872e-001
1.378854e+003,1.210188e-001
1.380782e+003,1.200261e-001
1.382711e+003,1.186026e-001
1.384639e+003,1.170365e-001
1.386568e+003,1.153280e-001
1.388496e+003,1.135953e-001
1.390425e+003,1.123645e-001
1.392353e+003,1.114042e-001
1.394281e+003,1.105639e-001
1.396210e+003,1.097193e-001
1.398138e+003,1.090932e-001
1.400067e+003,1.088444e-001
1.401995e+003,1.082624e-001
1.403924e+003,1.077605e-001
1.405852e+003,1.073362e-001
1.407781e+003,1.067607e-001
1.409709e+003,1.061170e-001
1.411638e+003,1.056501e-001
1.413566e+003,1.054151e-001
1.415495e+003,1.050934e-001
1.417423e+003,1.052193e-001
1.419352e+003,1.058564e-001
1.421280e+003,1.064751e-001
1.423208e+003,1.072469e-001
1.425137e+003,1.082493e-001
1.427065e+003,1.090040e-001
1.428994e+003,1.096574e-001
1.430922e+003,1.093133e-001
1.432851e+003,1.080245e-001
1.434779e+003,1.060766e-001
1.436708e+003,1.044822e-001
1.438636e+003,1.031955e-001
1.440565e+003,1.023007e-001
1.442493e+003,1.021874e-001
1.444422e+003,1.028377e-001
1.446350e+003,1.039866e-001
1.448279e+003,1.048904e-001
1.450207e+003,1.050705e-001
1.452135e+003,1.047027e-001
1.454064e+003,1.037000e-001
1.455992e+003,1.017335e-001
1.457921e+003,9.979416e-002
1.459849e+003,9.855018e-002
1.461778e+003,9.729487e-002
1.463706e+003,9.554348e-002
1.465635e+003,9.249022e-002
1.467563e+003,8.764248e-002
1.469492e+003,8.173565e-002
1.471420e+003,7.574478e-002
1.473349e+003,7.020584e-002
1.475277e+003,6.553453e-002
1.477206e+003,6.208656e-002
1.479134e+003,5.971340e-002
1.481063e+003,5.797040e-002
1.482991e+003,5.683392e-002
1.484919e+003,5.585946e-002
1.486848e+003,5.532922e-002
1.488776e+003,5.569346e-002
1.490705e+003,5.652679e-002
1.492633e+003,5.752325e-002
1.494562e+003,5.881251e-002
1.496490e+003,6.097411e-002
1.498419e+003,6.377669e-002
1.500347e+003,6.743471e-002
1.502276e+003,7.156827e-002
1.504204e+003,7.552890e-002
1.506133e+003,7.988342e-002
1.508061e+003,8.604059e-002
1.509990e+003,9.399117e-002
1.511918e+003,1.022460e-001
1.513846e+003,1.072165e-001
1.515775e+003,1.055274e-001
1.517703e+003,9.697368e-002
1.519632e+003,8.502703e-002
1.521560e+003,7.341731e-002
1.523489e+003,6.386462e-002
1.525417e+003,5.595277e-002
1.527346e+003,4.900251e-002
1.529274e+003,4.341616e-002
1.531203e+003,3.939923e-002
1.533131e+003,3.627200e-002
1.535060e+003,3.416916e-002
1.536988e+003,3.336408e-002
1.538917e+003,3.326502e-002
1.540845e+003,3.345268e-002
1.542773e+003,3.382717e-002
1.544702e+003,3.419866e-002
1.546630e+003,3.433932e-002
1.548559e+003,3.465156e-002
1.550487e+003,3.621016e-002
1.552416e+003,3.821697e-002
1.554344e+003,3.982668e-002
1.556273e+003,4.135869e-002
1.558201e+003,4.277096e-002
1.560130e+003,4.424139e-002
1.562058e+003,4.552503e-002
1.563987e+003,4.671801e-002
1.565915e+003,4.806936e-002
1.567844e+003,4.955931e-002
1.569772e+003,5.120883e-002
1.571700e+003,5.353240e-002
1.573629e+003,5.614948e-002
1.575557e+003,5.881650e-002
1.577486e+003,6.177269e-002
1.579414e+003,6.525920e-002
1.581343e+003,6.868885e-002
1.583271e+003,7.187648e-002
1.585200e+003,7.516596e-002
1.587128e+003,7.833404e-002
1.589057e+003,8.145013e-002
1.590985e+003,8.456891e-002
1.592914e+003,8.761455e-002
1.594842e+003,9.074082e-002
1.596771e+003,9.354860e-002
1.598699e+003,9.613231e-002
1.600627e+003,9.856248e-002
1.602556e+003,1.001206e-001
1.604484e+003,1.010090e-001
1.606413e+003,1.017021e-001
1.608341e+003,1.020221e-001
1.610270e+003,1.020049e-001
1.612198e+003,1.016493e-001
1.614127e+003,1.006382e-001
1.616055e+003,9.924211e-002
1.617984e+003,9.741224e-002
1.619912e+003,9.589022e-002
1.621841e+003,9.475829e-002
1.623769e+003,9.413551e-002
1.625698e+003,9.403580e-002
1.627626e+003,9.404544e-002
1.629554e+003,9.405955e-002
1.631483e+003,9.402795e-002
1.633411e+003,9.406588e-002
1.635340e+003,9.434161e-002
1.637268e+003,9.463871e-002
1.639197e+003,9.511237e-002
1.641125e+003,9.535422e-002
1.643054e+003,9.534179e-002
1.644982e+003,9.538195e-002
1.646911e+003,9.533858e-002
1.648839e+003,9.541150e-002
1.650768e+003,9.543896e-002
1.652696e+003,9.528555e-002
1.654625e+003,9.526765e-002
1.656553e+003,9.520118e-002
1.658481e+003,9.491612e-002
1.660410e+003,9.487337e-002
1.662338e+003,9.497141e-002
1.664267e+003,9.531192e-002
1.666195e+003,9.609688e-002
1.668124e+003,9.700520e-002
1.670052e+003,9.777223e-002
1.671981e+003,9.912907e-002
1.673909e+003,1.012686e-001
1.675838e+003,1.034422e-001
1.677766e+003,1.058963e-001
1.679695e+003,1.087478e-001
1.681623e+003,1.117859e-001
1.683552e+003,1.152902e-001
1.685480e+003,1.194457e-001
1.687408e+003,1.236298e-001
1.689337e+003,1.277056e-001
1.691265e+003,1.319728e-001
1.693194e+003,1.364829e-001
1.695122e+003,1.406807e-001
1.697051e+003,1.443140e-001
1.698979e+003,1.474508e-001
1.700908e+003,1.499735e-001
1.702836e+003,1.519058e-001
1.704765e+003,1.529526e-001
1.706693e+003,1.531315e-001
1.708622e+003,1.525971e-001
1.710550e+003,1.512194e-001
1.712479e+003,1.491872e-001
1.714407e+003,1.465263e-001
1.716335e+003,1.431610e-001
1.718264e+003,1.389995e-001
1.720192e+003,1.346389e-001
1.722121e+003,1.300022e-001
1.724049e+003,1.248571e-001
1.725978e+003,1.193182e-001
1.727906e+003,1.134013e-001
1.729835e+003,1.073124e-001
1.731763e+003,1.015949e-001
1.733692e+003,9.663012e-002
1.735620e+003,9.220513e-002
1.737549e+003,8.780652e-002
1.739477e+003,8.367845e-002
1.741406e+003,7.978164e-002
1.743334e+003,7.588322e-002
1.745262e+003,7.243292e-002
1.747191e+003,6.951846e-002
1.749119e+003,6.681912e-002
1.751048e+003,6.414767e-002
1.752976e+003,6.176218e-002
1.754905e+003,5.912152e-002
1.756833e+003,5.642807e-002
1.758762e+003,5.406168e-002
1.760690e+003,5.161459e-002
1.762619e+003,4.888046e-002
1.764547e+003,4.597332e-002
1.766476e+003,4.311585e-002
1.768404e+003,4.027578e-002
1.770333e+003,3.760885e-002
1.772261e+003,3.512537e-002
1.774189e+003,3.276990e-002
1.776118e+003,3.041960e-002
1.778046e+003,2.807700e-002
1.779975e+003,2.604659e-002
1.781903e+003,2.393283e-002
1.783832e+003,2.176664e-002
1.785760e+003,2.000891e-002
1.787689e+003,1.857741e-002
1.789617e+003,1.698117e-002
1.791546e+003,1.542874e-002
1.793474e+003,1.400707e-002
1.795403e+003,1.261630e-002
1.797331e+003,1.125789e-002
1.799260e+003,1.022104e-002
1.801188e+003,9.345795e-003
1.803116e+003,8.476023e-003
1.805045e+003,7.762453e-003
1.806973e+003,6.974793e-003
1.808902e+003,6.187281e-003
1.810830e+003,5.717238e-003
1.812759e+003,5.339168e-003
1.814687e+003,4.692018e-003
1.816616e+003,4.434426e-003
1.818544e+003,4.205825e-003
1.820473e+003,3.779430e-003
1.822401e+003,3.583278e-003
1.824330e+003,3.659590e-003
1.826258e+003,3.402275e-003
1.828187e+003,3.144645e-003
1.830115e+003,3.151286e-003
1.832043e+003,3.166205e-003
1.833972e+003,3.074363e-003
1.835900e+003,2.959621e-003
1.837829e+003,2.976935e-003
1.839757e+003,2.897274e-003
1.841686e+003,2.815093e-003
1.843614e+003,2.977736e-003
1.845543e+003,2.968194e-003
1.847471e+003,2.784813e-003
1.849400e+003,2.939939e-003
1.851328e+003,2.972498e-003
1.853257e+003,2.823497e-003
1.855185e+003,2.926829e-003
1.857114e+003,3.075398e-003
1.859042e+003,2.964992e-003
1.860970e+003,2.734528e-003
1.862899e+003,2.596876e-003
1.864827e+003,2.808990e-003
1.866756e+003,2.955618e-003
1.868684e+003,2.843608e-003
1.870613e+003,2.887901e-003
1.872541e+003,3.007596e-003
1.874470e+003,2.903178e-003
1.876398e+003,2.887468e-003
1.878327e+003,2.849045e-003
1.880255e+003,2.908082e-003
1.882183e+003,3.056744e-003
1.884112e+003,2.892171e-003
1.886040e+003,2.902978e-003
1.887969e+003,2.986210e-003
1.889897e+003,2.996386e-003
1.891826e+003,2.966193e-003
1.893754e+003,2.711655e-003
1.895683e+003,2.755835e-003
1.897611e+003,2.891337e-003
1.899540e+003,2.865821e-003
1.901468e+003,2.988646e-003
1.903397e+003,3.090848e-003
1.905325e+003,3.070693e-003
1.907254e+003,3.034221e-003
1.909182e+003,3.061783e-003
1.911110e+003,3.006361e-003
1.913039e+003,3.090047e-003
1.914967e+003,3.079902e-003
1.916896e+003,2.989947e-003
1.918824e+003,2.966460e-003
1.920753e+003,2.982507e-003
1.922681e+003,2.908282e-003
1.924610e+003,2.880763e-003
1.926538e+003,3.092817e-003
1.928467e+003,3.331317e-003
1.930395e+003,3.314556e-003
1.932324e+003,3.229859e-003
1.934252e+003,3.061883e-003
1.936181e+003,3.083240e-003
1.938109e+003,3.188335e-003
1.940037e+003,3.217375e-003
1.941966e+003,3.187400e-003
1.943894e+003,3.304005e-003
1.945823e+003,3.283673e-003
1.947751e+003,2.969062e-003
1.949680e+003,2.981372e-003
1.951608e+003,3.133598e-003
1.953537e+003,3.174883e-003
1.955465e+003,3.222415e-003
1.957394e+003,3.347077e-003
1.959322e+003,3.387848e-003
1.961251e+003,3.239506e-003
1.963179e+003,3.188368e-003
1.965108e+003,3.300066e-003
1.967036e+003,3.453305e-003
1.968964e+003,3.462957e-003
1.970893e+003,3.426620e-003
1.972821e+003,3.652773e-003
1.974750e+003,3.703699e-003
1.976678e+003,3.575494e-003
1.978607e+003,3.440046e-003
1.980535e+003,3.333521e-003
1.982464e+003,3.452837e-003
1.984392e+003,3.530395e-003
1.986321e+003,3.649232e-003
1.988249e+003,3.530262e-003
1.990178e+003,3.388049e-003
1.992106e+003,3.543123e-003
1.994035e+003,3.770874e-003
1.995963e+003,3.794572e-003
1.997891e+003,3.787686e-003
1.999820e+003,3.781803e-003
2.001748e+003,3.748949e-003
2.003677e+003,3.576095e-003
2.005605e+003,3.589058e-003
2.007534e+003,3.765359e-003
2.009462e+003,3.733576e-003
2.011391e+003,3.604393e-003
2.013319e+003,3.650535e-003
2.015248e+003,3.813925e-003
2.017176e+003,3.809045e-003
2.019105e+003,3.754597e-003
2.021033e+003,3.648129e-003
2.022962e+003,3.616287e-003
2.024890e+003,3.599916e-003
2.026818e+003,3.669113e-003
2.028747e+003,3.982928e-003
2.030675e+003,4.109849e-003
2.032604e+003,4.052754e-003
2.034532e+003,4.047471e-003
2.036461e+003,4.130153e-003
2.038389e+003,4.094897e-003
2.040318e+003,3.822750e-003
2.042246e+003,3.811418e-003
2.044175e+003,3.902146e-003
2.046103e+003,3.839196e-003
2.048032e+003,3.937720e-003
2.049960e+003,3.994164e-003
2.051889e+003,3.972629e-003
2.053817e+003,4.076267e-003
2.055746e+003,4.141526e-003
2.057674e+003,4.098041e-003
2.059603e+003,4.148919e-003
2.061531e+003,4.147447e-003
2.063459e+003,4.054761e-003
2.065388e+003,3.949289e-003
2.067316e+003,3.865271e-003
2.069245e+003,3.796711e-003
2.071173e+003,3.736350e-003
2.073102e+003,3.885864e-003
2.075030e+003,3.861493e-003
2.076959e+003,3.704133e-003
2.078887e+003,3.636735e-003
2.080816e+003,3.789023e-003
2.082744e+003,3.847018e-003
2.084673e+003,3.754096e-003
2.086601e+003,3.917091e-003
2.088530e+003,3.878911e-003
2.090458e+003,3.567108e-003
2.092386e+003,3.306309e-003
2.094315e+003,3.417904e-003
2.096243e+003,3.547298e-003
2.098172e+003,3.578668e-003
2.100100e+003,3.338395e-003
2.102029e+003,3.297128e-003
2.103957e+003,3.496525e-003
2.105886e+003,3.547833e-003
2.107814e+003,3.411625e-003
2.109743e+003,3.184363e-003
2.111671e+003,3.263709e-003
2.113600e+003,3.564002e-003
2.115528e+003,3.460586e-003
2.117457e+003,3.272856e-003
2.119385e+003,3.315023e-003
2.121313e+003,3.358296e-003
2.123242e+003,3.462456e-003
2.125170e+003,3.447293e-003
2.127099e+003,3.093618e-003
2.129027e+003,3.052006e-003
2.130956e+003,3.233531e-003
2.132884e+003,3.298563e-003
2.134813e+003,3.243546e-003
2.136741e+003,3.408620e-003
2.138670e+003,3.284274e-003
2.140598e+003,3.054642e-003
2.142527e+003,3.101660e-003
2.144455e+003,3.034522e-003
2.146384e+003,2.938004e-003
2.148312e+003,2.966293e-003
2.150240e+003,3.092383e-003
2.152169e+003,3.014602e-003
2.154097e+003,2.946644e-003
2.156026e+003,2.941206e-003
2.157954e+003,3.018440e-003
2.159883e+003,2.794550e-003
2.161811e+003,2.525983e-003
2.163740e+003,2.627976e-003
2.165668e+003,2.808057e-003
2.167597e+003,2.696985e-003
2.169525e+003,2.626476e-003
2.171454e+003,2.693118e-003
2.173382e+003,2.655712e-003
2.175311e+003,2.686283e-003
2.177239e+003,2.682116e-003
2.179167e+003,2.422380e-003
2.181096e+003,2.327830e-003
2.183024e+003,2.351449e-003
2.184953e+003,2.363509e-003
2.186881e+003,2.273601e-003
2.188810e+003,2.156740e-003
2.190738e+003,2.245990e-003
2.192667e+003,2.329462e-003
2.194595e+003,2.281063e-003
2.196524e+003,2.272236e-003
2.198452e+003,2.405788e-003
2.200381e+003,2.341022e-003
2.202309e+003,2.135995e-003
2.204238e+003,2.026693e-003
2.206166e+003,2.041440e-003
2.208094e+003,2.062214e-003
2.210023e+003,1.994704e-003
2.211951e+003,1.901045e-003
2.213880e+003,2.033351e-003
2.215808e+003,2.131433e-003
2.217737e+003,2.156939e-003
2.219665e+003,2.133198e-003
2.221594e+003,2.097471e-003
2.223522e+003,2.118214e-003
2.225451e+003,1.963981e-003
2.227379e+003,2.026527e-003
2.229308e+003,2.078727e-003
2.231236e+003,1.915722e-003
2.233165e+003,1.860613e-003
2.235093e+003,1.862510e-003
2.237021e+003,1.928102e-003
2.238950e+003,1.873458e-003
2.240878e+003,1.887201e-003
2.242807e+003,1.990443e-003
2.244735e+003,2.006354e-003
2.246664e+003,2.076863e-003
2.248592e+003,1.983986e-003
2.250521e+003,1.819984e-003
2.252449e+003,1.833094e-003
2.254378e+003,2.116017e-003
2.256306e+003,2.332294e-003
2.258235e+003,2.320135e-003
2.260163e+003,2.219713e-003
2.262092e+003,2.194302e-003
2.264020e+003,2.187775e-003
2.265948e+003,2.191339e-003
2.267877e+003,2.048831e-003
2.269805e+003,1.792601e-003
2.271734e+003,1.870895e-003
2.273662e+003,2.141089e-003
2.275591e+003,2.246556e-003
2.277519e+003,2.320169e-003
2.279448e+003,2.295785e-003
2.281376e+003,2.327331e-003
2.283305e+003,2.488258e-003
2.285233e+003,2.374303e-003
2.287162e+003,2.240295e-003
2.289090e+003,2.142821e-003
2.291019e+003,2.332261e-003
2.292947e+003,2.515085e-003
2.294875e+003,2.561778e-003
2.296804e+003,2.587676e-003
2.298732e+003,2.484159e-003
2.300661e+003,2.578143e-003
2.302589e+003,2.816961e-003
2.304518e+003,2.801420e-003
2.306446e+003,2.861452e-003
2.308375e+003,3.108702e-003
2.310303e+003,2.863153e-003
2.312232e+003,2.815894e-003
2.314160e+003,2.971130e-003
2.316089e+003,2.908315e-003
2.318017e+003,2.887868e-003
2.319946e+003,2.889069e-003
2.321874e+003,2.952348e-003
2.323802e+003,3.034021e-003
2.325731e+003,3.067189e-003
2.327659e+003,3.164136e-003
2.329588e+003,3.146747e-003
2.331516e+003,3.246483e-003
2.333445e+003,3.427822e-003
2.335373e+003,3.399269e-003
2.337302e+003,3.502470e-003
2.339230e+003,3.505009e-003
2.341159e+003,3.463024e-003
2.343087e+003,3.645957e-003
2.345016e+003,3.765794e-003
2.346944e+003,3.787285e-003
2.348873e+003,3.872024e-003
2.350801e+003,3.910839e-003
2.352729e+003,4.075130e-003
2.354658e+003,4.285960e-003
2.356586e+003,4.120251e-003
2.358515e+003,4.034628e-003
2.360443e+003,4.230081e-003
2.362372e+003,4.223657e-003
2.364300e+003,4.111287e-003
2.366229e+003,4.097874e-003
2.368157e+003,4.136709e-003
2.370086e+003,4.162902e-003
2.372014e+003,4.192978e-003
2.373943e+003,4.317249e-003
2.375871e+003,4.203750e-003
2.377800e+003,4.396870e-003
2.379728e+003,4.667468e-003
2.381656e+003,4.628318e-003
2.383585e+003,4.516746e-003
2.385513e+003,4.562617e-003
2.387442e+003,4.650823e-003
2.389370e+003,4.748192e-003
2.391299e+003,4.690846e-003
2.393227e+003,4.707326e-003
2.395156e+003,4.961125e-003
2.397084e+003,5.062016e-003
2.399013e+003,5.177449e-003
2.400941e+003,5.290163e-003
2.402870e+003,5.174398e-003
2.404798e+003,5.148010e-003
2.406727e+003,5.278056e-003
2.408655e+003,5.411059e-003
2.410583e+003,5.622908e-003
2.412512e+003,5.739934e-003
2.414440e+003,5.687493e-003
2.416369e+003,5.585685e-003
2.418297e+003,5.637711e-003
2.420226e+003,5.791978e-003
2.422154e+003,6.011573e-003
2.424083e+003,6.091202e-003
2.426011e+003,6.315016e-003
2.427940e+003,6.348334e-003
2.429868e+003,6.200490e-003
2.431797e+003,6.499424e-003
2.433725e+003,6.636704e-003
2.435654e+003,6.546177e-003
2.437582e+003,6.761643e-003
2.439510e+003,6.866724e-003
2.441439e+003,6.746600e-003
2.443367e+003,6.697638e-003
2.445296e+003,6.977116e-003
2.447224e+003,7.343742e-003
2.449153e+003,7.473941e-003
2.451081e+003,7.545579e-003
2.453010e+003,7.501313e-003
2.454938e+003,7.589983e-003
2.456867e+003,7.835555e-003
2.458795e+003,8.115732e-003
2.460724e+003,8.103916e-003
2.462652e+003,7.953381e-003
2.464581e+003,7.833362e-003
2.466509e+003,7.982539e-003
2.468438e+003,8.111782e-003
2.470366e+003,8.411630e-003
2.472294e+003,8.590678e-003
2.474223e+003,8.738087e-003
2.476151e+003,8.849903e-003
2.478080e+003,9.086376e-003
2.480008e+003,9.248440e-003
2.481937e+003,9.173880e-003
2.483865e+003,9.332525e-003
2.485794e+003,9.471584e-003
2.487722e+003,9.349824e-003
2.489651e+003,9.266684e-003
2.491579e+003,9.409346e-003
2.493508e+003,9.718290e-003
2.495436e+003,9.953745e-003
2.497365e+003,1.003675e-002
2.499293e+003,1.010945e-002
2.501221e+003,1.019689e-002
2.503150e+003,1.024561e-002
2.505078e+003,1.021738e-002
2.507007e+003,1.028683e-002
2.508935e+003,1.063049e-002
2.510864e+003,1.098189e-002
2.512792e+003,1.112600e-002
2.514721e+003,1.096562e-002
2.516649e+003,1.099114e-002
2.518578e+003,1.118060e-002
2.520506e+003,1.130441e-002
2.522435e+003,1.152878e-002
2.524363e+003,1.154273e-002
2.526292e+003,1.160167e-002
2.528220e+003,1.170639e-002
2.530148e+003,1.181475e-002
2.532077e+003,1.189958e-002
2.534005e+003,1.187598e-002
2.535934e+003,1.205503e-002
2.537862e+003,1.226398e-002
2.539791e+003,1.215577e-002
2.541719e+003,1.222516e-002
2.543648e+003,1.230992e-002
2.545576e+003,1.247166e-002
2.547505e+003,1.266549e-002
2.549433e+003,1.270622e-002
2.551362e+003,1.276303e-002
2.553290e+003,1.283374e-002
2.555219e+003,1.294156e-002
2.557147e+003,1.315965e-002
2.559075e+003,1.318557e-002
2.561004e+003,1.296775e-002
2.562932e+003,1.284906e-002
2.564861e+003,1.301370e-002
2.566789e+003,1.326328e-002
2.568718e+003,1.317987e-002
2.570646e+003,1.325805e-002
2.572575e+003,1.334558e-002
2.574503e+003,1.348624e-002
2.576432e+003,1.395331e-002
2.578360e+003,1.418762e-002
2.580289e+003,1.414547e-002
2.582217e+003,1.401117e-002
2.584146e+003,1.394719e-002
2.586074e+003,1.407928e-002
2.588002e+003,1.407435e-002
2.589931e+003,1.423021e-002
2.591859e+003,1.435855e-002
2.593788e+003,1.429814e-002
2.595716e+003,1.426722e-002
2.597645e+003,1.444798e-002
2.599573e+003,1.455192e-002
2.601502e+003,1.469304e-002
2.603430e+003,1.461696e-002
2.605359e+003,1.449786e-002
2.607287e+003,1.473475e-002
2.609216e+003,1.487709e-002
2.611144e+003,1.506034e-002
2.613073e+003,1.511475e-002
2.615001e+003,1.536111e-002
2.616929e+003,1.556602e-002
2.618858e+003,1.557632e-002
2.620786e+003,1.531618e-002
2.622715e+003,1.537155e-002
2.624643e+003,1.558003e-002
2.626572e+003,1.565110e-002
2.628500e+003,1.539509e-002
2.630429e+003,1.519050e-002
2.632357e+003,1.522990e-002
2.634286e+003,1.549782e-002
2.636214e+003,1.564045e-002
2.638143e+003,1.559332e-002
2.640071e+003,1.546554e-002
2.642000e+003,1.548536e-002
2.643928e+003,1.565275e-002
2.645856e+003,1.560827e-002
2.647785e+003,1.548628e-002
2.649713e+003,1.528007e-002
2.651642e+003,1.523021e-002
2.653570e+003,1.536725e-002
2.655499e+003,1.552320e-002
2.657427e+003,1.555627e-002
2.659356e+003,1.549830e-002
2.661284e+003,1.548896e-002
2.663213e+003,1.562276e-002
2.665141e+003,1.564708e-002
2.667070e+003,1.563344e-002
2.668998e+003,1.563386e-002
2.670927e+003,1.545785e-002
2.672855e+003,1.545662e-002
2.674783e+003,1.550311e-002
2.676712e+003,1.563458e-002
2.678640e+003,1.586594e-002
2.680569e+003,1.589570e-002
2.682497e+003,1.601962e-002
2.684426e+003,1.613745e-002
2.686354e+003,1.625157e-002
2.688283e+003,1.616345e-002
2.690211e+003,1.580285e-002
2.692140e+003,1.571479e-002
2.694068e+003,1.589069e-002
2.695997e+003,1.612917e-002
2.697925e+003,1.618230e-002
2.699854e+003,1.611861e-002
2.701782e+003,1.614684e-002
2.703710e+003,1.629732e-002
2.705639e+003,1.644665e-002
2.707567e+003,1.664808e-002
2.709496e+003,1.667879e-002
2.711424e+003,1.672338e-002
2.713353e+003,1.674921e-002
2.715281e+003,1.689710e-002
2.717210e+003,1.710498e-002
2.719138e+003,1.711177e-002
2.721067e+003,1.735720e-002
2.722995e+003,1.762351e-002
2.724924e+003,1.765985e-002
2.726852e+003,1.744477e-002
2.728781e+003,1.739241e-002
2.730709e+003,1.747833e-002
2.732637e+003,1.750469e-002
2.734566e+003,1.753929e-002
2.736494e+003,1.762172e-002
2.738423e+003,1.749572e-002
2.740351e+003,1.739962e-002
2.742280e+003,1.752383e-002
2.744208e+003,1.775003e-002
2.746137e+003,1.772911e-002
2.748065e+003,1.769312e-002
2.749994e+003,1.783982e-002
2.751922e+003,1.820858e-002
2.753851e+003,1.841511e-002
2.755779e+003,1.817448e-002
2.757708e+003,1.805626e-002
2.759636e+003,1.814677e-002
2.761564e+003,1.827002e-002
2.763493e+003,1.818754e-002
2.765421e+003,1.821380e-002
2.767350e+003,1.862434e-002
2.769278e+003,1.871486e-002
2.771207e+003,1.827714e-002
2.773135e+003,1.835960e-002
2.775064e+003,1.893500e-002
2.776992e+003,1.915892e-002
2.778921e+003,1.900111e-002
2.780849e+003,1.890330e-002
2.782778e+003,1.907385e-002
2.784706e+003,1.947294e-002
2.786635e+003,1.940097e-002
2.788563e+003,1.924581e-002
2.790491e+003,1.975317e-002
2.792420e+003,2.004305e-002
2.794348e+003,2.021401e-002
2.796277e+003,2.043113e-002
2.798205e+003,2.089721e-002
2.800134e+003,2.132332e-002
2.802062e+003,2.095389e-002
2.803991e+003,2.062542e-002
2.805919e+003,2.086446e-002
2.807848e+003,2.136467e-002
2.809776e+003,2.202531e-002
2.811705e+003,2.232223e-002
2.813633e+003,2.241914e-002
2.815562e+003,2.259603e-002
2.817490e+003,2.288747e-002
2.819418e+003,2.326470e-002
2.821347e+003,2.401739e-002
2.823275e+003,2.481359e-002
2.825204e+003,2.478391e-002
2.827132e+003,2.501101e-002
2.829061e+003,2.581818e-002
2.830989e+003,2.657232e-002
2.832918e+003,2.725621e-002
2.834846e+003,2.818016e-002
2.836775e+003,2.906544e-002
2.838703e+003,2.981165e-002
2.840632e+003,3.034405e-002
2.842560e+003,3.070407e-002
2.844489e+003,3.132759e-002
2.846417e+003,3.168482e-002
2.848345e+003,3.184078e-002
2.850274e+003,3.210103e-002
2.852202e+003,3.253335e-002
2.854131e+003,3.265654e-002
2.856059e+003,3.278866e-002
2.857988e+003,3.352552e-002
2.859916e+003,3.436664e-002
2.861845e+003,3.484984e-002
2.863773e+003,3.519978e-002
2.865702e+003,3.593458e-002
2.867630e+003,3.701353e-002
2.869558e+003,3.767444e-002
2.871487e+003,3.847083e-002
2.873415e+003,3.923901e-002
2.875344e+003,3.925428e-002
2.877272e+003,3.942532e-002
2.879201e+003,3.970823e-002
2.881129e+003,3.998647e-002
2.883058e+003,4.035922e-002
2.884986e+003,4.046814e-002
2.886915e+003,4.052139e-002
2.888843e+003,4.118343e-002
2.890771e+003,4.170462e-002
2.892700e+003,4.175375e-002
2.894628e+003,4.205367e-002
2.896557e+003,4.269484e-002
2.898485e+003,4.314015e-002
2.900414e+003,4.361346e-002
2.902342e+003,4.414748e-002
2.904271e+003,4.512204e-002
2.906199e+003,4.538368e-002
2.908128e+003,4.578672e-002
2.910056e+003,4.672671e-002
2.911985e+003,4.717699e-002
2.913913e+003,4.808816e-002
2.915842e+003,4.879733e-002
2.917770e+003,4.872612e-002
2.919698e+003,4.916938e-002
2.921627e+003,4.967309e-002
2.923555e+003,4.938747e-002
2.925484e+003,4.928168e-002
2.927412e+003,4.994678e-002
2.929341e+003,5.073801e-002
2.931269e+003,5.106108e-002
2.933198e+003,5.115813e-002
2.935126e+003,5.127926e-002
2.937055e+003,5.132620e-002
2.938983e+003,5.105563e-002
2.940912e+003,5.064443e-002
2.942840e+003,5.035836e-002
2.944769e+003,4.979116e-002
2.946697e+003,4.903378e-002
2.948625e+003,4.890430e-002
2.950554e+003,4.884671e-002
2.952482e+003,4.848157e-002
2.954411e+003,4.807828e-002
2.956339e+003,4.814779e-002
2.958268e+003,4.837004e-002
2.960196e+003,4.823328e-002
2.962125e+003,4.751494e-002
2.964053e+003,4.719527e-002
2.965982e+003,4.727898e-002
2.967910e+003,4.702860e-002
2.969839e+003,4.679690e-002
2.971767e+003,4.658859e-002
2.973696e+003,4.561824e-002
2.975624e+003,4.463698e-002
2.977552e+003,4.380162e-002
2.979481e+003,4.304117e-002
2.981409e+003,4.243686e-002
2.983338e+003,4.154693e-002
2.985266e+003,4.055154e-002
2.987195e+003,3.949324e-002
2.989123e+003,3.840114e-002
2.991052e+003,3.758699e-002
2.992980e+003,3.674971e-002
2.994909e+003,3.625179e-002
2.996837e+003,3.600964e-002
2.998766e+003,3.583195e-002
3.000694e+003,3.592692e-002
3.002623e+003,3.550581e-002
3.004551e+003,3.495239e-002
3.006479e+003,3.452415e-002
3.008408e+003,3.428628e-002
3.010336e+003,3.425720e-002
3.012265e+003,3.429969e-002
3.014193e+003,3.417145e-002
3.016122e+003,3.407192e-002
3.018050e+003,3.401544e-002
3.019979e+003,3.409794e-002
3.021907e+003,3.467000e-002
3.023836e+003,3.477865e-002
3.025764e+003,3.458133e-002
3.027693e+003,3.493626e-002
3.029621e+003,3.516104e-002
3.031550e+003,3.514376e-002
3.033478e+003,3.482108e-002
3.035406e+003,3.448597e-002
3.037335e+003,3.447532e-002
3.039263e+003,3.460275e-002
3.041192e+003,3.498805e-002
3.043120e+003,3.521476e-002
3.045049e+003,3.537358e-002
3.046977e+003,3.537307e-002
3.048906e+003,3.593555e-002
3.050834e+003,3.649091e-002
3.052763e+003,3.672173e-002
3.054691e+003,3.700548e-002
3.056620e+003,3.686710e-002
3.058548e+003,3.667846e-002
3.060477e+003,3.671751e-002
3.062405e+003,3.698831e-002
3.064333e+003,3.747450e-002
3.066262e+003,3.791539e-002
3.068190e+003,3.815496e-002
3.070119e+003,3.902436e-002
3.072047e+003,3.914085e-002
3.073976e+003,3.881308e-002
3.075904e+003,3.895865e-002
3.077833e+003,3.951973e-002
3.079761e+003,3.989939e-002
3.081690e+003,4.011157e-002
3.083618e+003,4.042075e-002
3.085547e+003,4.025117e-002
3.087475e+003,4.049545e-002
3.089404e+003,4.154938e-002
3.091332e+003,4.200910e-002
3.093260e+003,4.214124e-002
3.095189e+003,4.235313e-002
3.097117e+003,4.201629e-002
3.099046e+003,4.229056e-002
3.100974e+003,4.325467e-002
3.102903e+003,4.353547e-002
3.104831e+003,4.302079e-002
3.106760e+003,4.325639e-002
3.108688e+003,4.392339e-002
3.110617e+003,4.454346e-002
3.112545e+003,4.530324e-002
3.114474e+003,4.603447e-002
3.116402e+003,4.645490e-002
3.118331e+003,4.691227e-002
3.120259e+003,4.684358e-002
3.122188e+003,4.683229e-002
3.124116e+003,4.749047e-002
3.126044e+003,4.811603e-002
3.127973e+003,4.845086e-002
3.129901e+003,4.889985e-002
3.131830e+003,4.943143e-002
3.133758e+003,4.944282e-002
3.135687e+003,4.962695e-002
3.137615e+003,5.049653e-002
3.139544e+003,5.139076e-002
3.141472e+003,5.160202e-002
3.143401e+003,5.124801e-002
3.145329e+003,5.185572e-002
3.147258e+003,5.271209e-002
3.149186e+003,5.313176e-002
3.151115e+003,5.328371e-002
3.153043e+003,5.329843e-002
3.154971e+003,5.355185e-002
3.156900e+003,5.415630e-002
3.158828e+003,5.508375e-002
3.160757e+003,5.555009e-002
3.162685e+003,5.603728e-002
3.164614e+003,5.661647e-002
3.166542e+003,5.704357e-002
3.168471e+003,5.755003e-002
3.170399e+003,5.770622e-002
3.172328e+003,5.762445e-002
3.174256e+003,5.778388e-002
3.176185e+003,5.858104e-002
3.178113e+003,5.927258e-002
3.180042e+003,5.966999e-002
3.181970e+003,5.998025e-002
3.183898e+003,6.089596e-002
3.185827e+003,6.172555e-002
3.187755e+003,6.193579e-002
3.189684e+003,6.204990e-002
3.191612e+003,6.197346e-002
3.193541e+003,6.236700e-002
3.195469e+003,6.337789e-002
3.197398e+003,6.416480e-002
3.199326e+003,6.440285e-002
3.201255e+003,6.503042e-002
3.203183e+003,6.572418e-002
3.205112e+003,6.605366e-002
3.207040e+003,6.637605e-002
3.208969e+003,6.664409e-002
3.210897e+003,6.688900e-002
3.212825e+003,6.722791e-002
3.214754e+003,6.764428e-002
3.216682e+003,6.802784e-002
3.218611e+003,6.847730e-002
3.220539e+003,6.875262e-002
3.222468e+003,6.931172e-002
3.224396e+003,6.992766e-002
3.226325e+003,7.013302e-002
3.228253e+003,7.020877e-002
3.230182e+003,7.024312e-002
3.232110e+003,7.108852e-002
3.234039e+003,7.146911e-002
3.235967e+003,7.122037e-002
3.237896e+003,7.120053e-002
3.239824e+003,7.163746e-002
3.241752e+003,7.230156e-002
3.243681e+003,7.286776e-002
3.245609e+003,7.317325e-002
3.247538e+003,7.326404e-002
3.249466e+003,7.332135e-002
3.251395e+003,7.345922e-002
3.253323e+003,7.389913e-002
3.255252e+003,7.468820e-002
3.257180e+003,7.503081e-002
3.259109e+003,7.500588e-002
3.261037e+003,7.591384e-002
3.262966e+003,7.665827e-002
3.264894e+003,7.654590e-002
3.266823e+003,7.653765e-002
3.268751e+003,7.688991e-002
3.270679e+003,7.729613e-002
3.272608e+003,7.717125e-002
3.274536e+003,7.654863e-002
3.276465e+003,7.698184e-002
3.278393e+003,7.711224e-002
3.280322e+003,7.720216e-002
3.282250e+003,7.769652e-002
3.284179e+003,7.792779e-002
3.286107e+003,7.851750e-002
3.288036e+003,7.871704e-002
3.289964e+003,7.878981e-002
3.291893e+003,7.888269e-002
3.293821e+003,7.930507e-002
3.295750e+003,7.951309e-002
3.297678e+003,7.954460e-002
3.299606e+003,7.999957e-002
3.301535e+003,8.036625e-002
3.303463e+003,8.049756e-002
3.305392e+003,8.095552e-002
3.307320e+003,8.096278e-002
3.309249e+003,8.087393e-002
3.311177e+003,8.135422e-002
3.313106e+003,8.166479e-002
3.315034e+003,8.160469e-002
3.316963e+003,8.113202e-002
3.318891e+003,8.158134e-002
3.320820e+003,8.246154e-002
3.322748e+003,8.265804e-002
3.324677e+003,8.219064e-002
3.326605e+003,8.244479e-002
3.328533e+003,8.314762e-002
3.330462e+003,8.330210e-002
3.332390e+003,8.298270e-002
3.334319e+003,8.301780e-002
3.336247e+003,8.365680e-002
3.338176e+003,8.428004e-002
3.340104e+003,8.492440e-002
3.342033e+003,8.539759e-002
3.343961e+003,8.541489e-002
3.345890e+003,8.506294e-002
3.347818e+003,8.447955e-002
3.349747e+003,8.517653e-002
3.351675e+003,8.543074e-002
3.353604e+003,8.517431e-002
3.355532e+003,8.571219e-002
3.357460e+003,8.659417e-002
3.359389e+003,8.719248e-002
3.361317e+003,8.630209e-002
3.363246e+003,8.557001e-002
3.365174e+003,8.595916e-002
3.367103e+003,8.630533e-002
3.369031e+003,8.704610e-002
3.370960e+003,8.756465e-002
3.372888e+003,8.721707e-002
3.374817e+003,8.713729e-002
3.376745e+003,8.675202e-002
3.378674e+003,8.619989e-002
3.380602e+003,8.669627e-002
3.382531e+003,8.673806e-002
3.384459e+003,8.611552e-002
3.386387e+003,8.626446e-002
3.388316e+003,8.644115e-002
3.390244e+003,8.614259e-002
3.392173e+003,8.658443e-002
3.394101e+003,8.732640e-002
3.396030e+003,8.639458e-002
3.397958e+003,8.635480e-002
3.399887e+003,8.651272e-002
3.401815e+003,8.607940e-002
3.403744e+003,8.584775e-002
3.405672e+003,8.573975e-002
3.407601e+003,8.578368e-002
3.409529e+003,8.550590e-002
3.411458e+003,8.508132e-002
3.413386e+003,8.448188e-002
3.415314e+003,8.453433e-002
3.417243e+003,8.443697e-002
3.419171e+003,8.340330e-002
3.421100e+003,8.265444e-002
3.423028e+003,8.218079e-002
3.424957e+003,8.249290e-002
3.426885e+003,8.248982e-002
3.428814e+003,8.161096e-002
3.430742e+003,8.191959e-002
3.432671e+003,8.185893e-002
3.434599e+003,8.105534e-002
3.436528e+003,8.120064e-002
3.438456e+003,8.125333e-002
3.440385e+003,8.019138e-002
3.442313e+003,7.947059e-002
3.444241e+003,7.954743e-002
3.446170e+003,7.881535e-002
3.448098e+003,7.780079e-002
3.450027e+003,7.776329e-002
3.451955e+003,7.756930e-002
3.453884e+003,7.759949e-002
3.455812e+003,7.708969e-002
3.457741e+003,7.566660e-002
3.459669e+003,7.454424e-002
3.461598e+003,7.360333e-002
3.463526e+003,7.320639e-002
3.465455e+003,7.290914e-002
3.467383e+003,7.223750e-002
3.469312e+003,7.216883e-002
3.471240e+003,7.182948e-002
3.473168e+003,7.146099e-002
3.475097e+003,7.125898e-002
3.477025e+003,7.004113e-002
3.478954e+003,6.845673e-002
3.480882e+003,6.753414e-002
3.482811e+003,6.693182e-002
3.484739e+003,6.623358e-002
3.486668e+003,6.603684e-002
3.488596e+003,6.562670e-002
3.490525e+003,6.520699e-002
3.492453e+003,6.355973e-002
3.494382e+003,6.285007e-002
3.496310e+003,6.242492e-002
3.498239e+003,6.117434e-002
3.500167e+003,6.045302e-002
3.502095e+003,5.981614e-002
3.504024e+003,5.891398e-002
3.505952e+003,5.869552e-002
3.507881e+003,5.833133e-002
3.509809e+003,5.721469e-002
3.511738e+003,5.625341e-002
3.513666e+003,5.570138e-002
3.515595e+003,5.467936e-002
3.517523e+003,5.382875e-002
3.519452e+003,5.300967e-002
3.521380e+003,5.231905e-002
3.523309e+003,5.203519e-002
3.525237e+003,5.168755e-002
3.527166e+003,5.078817e-002
3.529094e+003,4.967331e-002
3.531022e+003,4.876266e-002
3.532951e+003,4.856668e-002
3.534879e+003,4.825672e-002
3.536808e+003,4.649137e-002
3.538736e+003,4.559373e-002
3.540665e+003,4.515957e-002
3.542593e+003,4.393218e-002
3.544522e+003,4.278116e-002
3.546450e+003,4.216531e-002
3.548379e+003,4.113043e-002
3.550307e+003,4.017335e-002
3.552236e+003,3.962750e-002
3.554164e+003,3.895553e-002
3.556093e+003,3.735894e-002
3.558021e+003,3.647322e-002
3.559949e+003,3.533871e-002
3.561878e+003,3.405106e-002
3.563806e+003,3.404529e-002
3.565735e+003,3.334931e-002
3.567663e+003,3.198264e-002
3.569592e+003,3.031797e-002
3.571520e+003,2.964159e-002
3.573449e+003,2.944723e-002
3.575377e+003,2.892538e-002
3.577306e+003,2.826608e-002
3.579234e+003,2.762561e-002
3.581163e+003,2.644817e-002
3.583091e+003,2.577029e-002
3.585020e+003,2.506987e-002
3.586948e+003,2.396694e-002
3.588876e+003,2.320934e-002
3.590805e+003,2.310180e-002
3.592733e+003,2.267628e-002
3.594662e+003,2.165479e-002
3.596590e+003,2.101356e-002
3.598519e+003,2.055642e-002
3.600447e+003,1.945302e-002
3.602376e+003,1.844460e-002
3.604304e+003,1.820367e-002
3.606233e+003,1.756016e-002
3.608161e+003,1.677872e-002
3.610090e+003,1.568284e-002
3.612018e+003,1.529366e-002
3.613947e+003,1.511523e-002
3.615875e+003,1.414349e-002
3.617803e+003,1.339233e-002
3.619732e+003,1.290115e-002
3.621660e+003,1.243108e-002
3.623589e+003,1.223773e-002
3.625517e+003,1.142127e-002
3.627446e+003,1.052727e-002
3.629374e+003,1.051634e-002
3.631303e+003,9.542638e-003
3.633231e+003,8.085451e-003
3.635160e+003,7.380509e-003
3.637088e+003,7.200612e-003
3.639017e+003,6.602725e-003
3.640945e+003,5.894944e-003
3.642874e+003,5.632139e-003
3.644802e+003,5.190192e-003
3.646730e+003,4.418660e-003
3.648659e+003,3.795040e-003
3.650587e+003,3.208495e-003
3.652516e+003,2.740330e-003
3.654444e+003,2.378934e-003
3.656373e+003,2.229271e-003
3.658301e+003,1.388113e-003
3.660230e+003,5.085075e-004
3.662158e+003,5.460833e-005
3.664087e+003,-5.262472e-004
3.666015e+003,-1.295363e-003
3.667944e+003,-1.843569e-003
3.669872e+003,-1.414142e-003
3.671801e+003,-1.965398e-003
3.673729e+003,-2.919183e-003
3.675657e+003,-3.097957e-003
3.677586e+003,-3.370765e-003
3.679514e+003,-3.467711e-003
3.681443e+003,-3.836625e-003
3.683371e+003,-4.127086e-003
3.685300e+003,-4.644261e-003
3.687228e+003,-4.891266e-003
3.689157e+003,-5.099916e-003
3.691085e+003,-5.585221e-003
3.693014e+003,-5.906451e-003
3.694942e+003,-6.035772e-003
3.696871e+003,-5.822112e-003
3.698799e+003,-6.036556e-003
3.700728e+003,-6.920769e-003
3.702656e+003,-7.104749e-003
3.704584e+003,-6.977963e-003
3.706513e+003,-6.416453e-003
3.708441e+003,-6.097462e-003
3.710370e+003,-6.288224e-003
3.712298e+003,-6.865882e-003
3.714227e+003,-6.910529e-003
3.716155e+003,-6.962247e-003
3.718084e+003,-6.789982e-003
3.720012e+003,-6.314840e-003
3.721941e+003,-6.499958e-003
3.723869e+003,-6.851760e-003
3.725798e+003,-6.791417e-003
3.727726e+003,-7.023935e-003
3.729655e+003,-7.235539e-003
3.731583e+003,-7.335698e-003
3.733511e+003,-7.453065e-003
3.735440e+003,-7.566004e-003
3.737368e+003,-7.214716e-003
3.739297e+003,-7.097709e-003
3.741225e+003,-7.625295e-003
3.743154e+003,-8.093510e-003
3.745082e+003,-7.803217e-003
3.747011e+003,-7.345668e-003
3.748939e+003,-7.301554e-003
3.750868e+003,-7.594625e-003
3.752796e+003,-8.283594e-003
3.754725e+003,-8.286227e-003
3.756653e+003,-8.416076e-003
3.758582e+003,-8.355853e-003
3.760510e+003,-8.316264e-003
3.762438e+003,-8.595949e-003
3.764367e+003,-8.584254e-003
3.766295e+003,-8.312200e-003
3.768224e+003,-8.513917e-003
3.770152e+003,-8.511968e-003
3.772081e+003,-8.510798e-003
3.774009e+003,-8.899217e-003
3.775938e+003,-8.572917e-003
3.777866e+003,-7.801590e-003
3.779795e+003,-7.260630e-003
3.781723e+003,-7.017252e-003
3.783652e+003,-7.408865e-003
3.785580e+003,-8.204560e-003
3.787509e+003,-8.787242e-003
3.789437e+003,-8.781364e-003
3.791365e+003,-8.258269e-003
3.793294e+003,-8.468883e-003
3.795222e+003,-8.936807e-003
3.797151e+003,-8.346102e-003
3.799079e+003,-7.732135e-003
3.801008e+003,-7.979830e-003
3.802936e+003,-8.360013e-003
3.804865e+003,-7.756872e-003
3.806793e+003,-7.468340e-003
3.808722e+003,-8.537928e-003
3.810650e+003,-8.695860e-003
3.812579e+003,-7.930705e-003
3.814507e+003,-7.923516e-003
3.816436e+003,-8.561481e-003
3.818364e+003,-9.022945e-003
3.820292e+003,-8.728239e-003
3.822221e+003,-8.980430e-003
3.824149e+003,-9.148194e-003
3.826078e+003,-9.059485e-003
3.828006e+003,-8.745158e-003
3.829935e+003,-8.200625e-003
3.831863e+003,-8.359754e-003
3.833792e+003,-8.731129e-003
3.835720e+003,-8.685078e-003
3.837649e+003,-9.167465e-003
3.839577e+003,-8.942227e-003
3.841506e+003,-7.945249e-003
3.843434e+003,-8.505015e-003
3.845363e+003,-8.862826e-003
3.847291e+003,-8.684103e-003
3.849219e+003,-8.461669e-003
3.851148e+003,-8.613360e-003
3.853076e+003,-8.430376e-003
3.855005e+003,-7.859026e-003
3.856933e+003,-7.827137e-003
3.858862e+003,-8.619207e-003
3.860790e+003,-9.042643e-003
3.862719e+003,-9.190563e-003
3.864647e+003,-9.333147e-003
3.866576e+003,-8.985103e-003
3.868504e+003,-8.163720e-003
3.870433e+003,-7.845295e-003
3.872361e+003,-8.354845e-003
3.874290e+003,-8.990491e-003
3.876218e+003,-9.191602e-003
3.878146e+003,-8.601698e-003
3.880075e+003,-8.202674e-003
3.882003e+003,-8.451400e-003
3.883932e+003,-9.065131e-003
3.885860e+003,-9.070193e-003
3.887789e+003,-8.698361e-003
3.889717e+003,-8.513982e-003
3.891646e+003,-8.530357e-003
3.893574e+003,-8.812470e-003
3.895503e+003,-8.799840e-003
3.897431e+003,-8.624112e-003
3.899360e+003,-8.768667e-003
3.901288e+003,-8.684525e-003
3.903217e+003,-8.672541e-003
3.905145e+003,-8.598190e-003
3.907073e+003,-7.793226e-003
3.909002e+003,-7.149893e-003
3.910930e+003,-7.427301e-003
3.912859e+003,-7.890394e-003
3.914787e+003,-8.177085e-003
3.916716e+003,-8.003511e-003
3.918644e+003,-7.563822e-003
3.920573e+003,-7.630309e-003
3.922501e+003,-8.885843e-003
3.924430e+003,-9.816209e-003
3.926358e+003,-9.193872e-003
3.928287e+003,-8.451823e-003
3.930215e+003,-8.001040e-003
3.932144e+003,-8.055523e-003
3.934072e+003,-8.051587e-003
3.936000e+003,-8.217760e-003
3.937929e+003,-8.097738e-003
3.939857e+003,-8.070321e-003
3.941786e+003,-8.525614e-003
3.943714e+003,-7.987214e-003
3.945643e+003,-7.589871e-003
3.947571e+003,-7.655247e-003
3.949500e+003,-7.677774e-003
3.951428e+003,-7.360002e-003
3.953357e+003,-7.307126e-003
3.955285e+003,-7.730572e-003
3.957214e+003,-8.227611e-003
3.959142e+003,-8.077574e-003
3.961071e+003,-7.628974e-003
3.962999e+003,-7.559492e-003
3.964927e+003,-7.944793e-003
3.966856e+003,-8.027485e-003
3.968784e+003,-8.120080e-003
3.970713e+003,-8.566549e-003
3.972641e+003,-8.768960e-003
3.974570e+003,-8.618785e-003
3.976498e+003,-7.799312e-003
3.978427e+003,-7.551319e-003
3.980355e+003,-7.553402e-003
3.982284e+003,-7.762568e-003
3.984212e+003,-7.636690e-003
3.986141e+003,-7.511818e-003
3.988069e+003,-7.863127e-003
3.989998e+003,-8.256611e-003
3.991926e+003,-8.287365e-003
3.993854e+003,-8.396447e-003
3.995783e+003,-8.150323e-003
3.997711e+003,-7.828861e-003
3.999640e+003,-7.798596e-003
4.001568e+003,0.000000e+000
