3.991927e+002,0.000000e+000
4.011211e+002,0.000000e+000
4.030496e+002,0.000000e+000
4.049781e+002,0.000000e+000
4.069065e+002,0.000000e+000
4.088350e+002,0.000000e+000
4.107635e+002,0.000000e+000
4.126919e+002,0.000000e+000
4.146204e+002,0.000000e+000
4.165489e+002,0.000000e+000
4.184773e+002,0.000000e+000
4.204058e+002,0.000000e+000
4.223343e+002,0.000000e+000
4.242627e+002,0.000000e+000
4.261912e+002,0.000000e+000
4.281197e+002,0.000000e+000
4.300481e+002,0.000000e+000
4.319766e+002,0.000000e+000
4.339051e+002,0.000000e+000
4.358335e+002,0.000000e+000
4.377620e+002,0.000000e+000
4.396905e+002,0.000000e+000
4.416189e+002,0.000000e+000
4.435474e+002,0.000000e+000
4.454759e+002,0.000000e+000
4.474043e+002,0.000000e+000
4.493328e+002,0.000000e+000
4.512613e+002,0.000000e+000
4.531897e+002,0.000000e+000
4.551182e+002,0.000000e+000
4.570467e+002,0.000000e+000
4.589751e+002,0.000000e+000
4.609036e+002,0.000000e+000
4.628321e+002,0.000000e+000
4.647605e+002,0.000000e+000
4.666890e+002,0.000000e+000
4.686175e+002,0.000000e+000
4.705459e+002,0.000000e+000
4.724744e+002,0.000000e+000
4.744029e+002,0.000000e+000
4.763313e+002,0.000000e+000
4.782598e+002,0.000000e+000
4.801883e+002,0.000000e+000
4.821167e+002,0.000000e+000
4.840452e+002,0.000000e+000
4.859737e+002,0.000000e+000
4.879021e+002,0.000000e+000
4.898306e+002,0.000000e+000
4.917591e+002,0.000000e+000
4.936875e+002,0.000000e+000
4.956160e+002,0.000000e+000
4.975445e+002,0.000000e+000
4.994729e+002,0.000000e+000
5.014014e+002,0.000000e+000
5.033299e+002,0.000000e+000
5.052583e+002,0.000000e+000
5.071868e+002,0.000000e+000
5.091153e+002,0.000000e+000
5.110437e+002,0.000000e+000
5.129722e+002,0.000000e+000
5.149006e+002,0.000000e+000
5.168291e+002,0.000000e+000
5.187576e+002,0.000000e+000
5.206860e+002,0.000000e+000
5.226145e+002,0.000000e+000
5.245430e+002,0.000000e+000
5.264714e+002,0.000000e+000
5.283999e+002,0.000000e+000
5.303284e+002,0.000000e+000
5.322568e+002,0.000000e+000
5.341853e+002,0.000000e+000
5.361138e+002,0.000000e+000
5.380422e+002,0.000000e+000
5.399707e+002,0.000000e+000
5.418992e+002,0.000000e+000
5.438276e+002,0.000000e+000
5.457561e+002,0.000000e+000
5.476846e+002,0.000000e+000
5.496130e+002,0.000000e+000
5.515415e+002,0.000000e+000
5.534700e+002,0.000000e+000
5.553984e+002,0.000000e+000
5.573269e+002,0.000000e+000
5.592554e+002,0.000000e+000
5.611838e+002,0.000000e+000
5.631123e+002,0.000000e+000
5.650408e+002,0.000000e+000
5.669692e+002,0.000000e+000
5.688977e+002,0.000000e+000
5.708262e+002,0.000000e+000
5.727546e+002,0.000000e+000
5.746831e+002,0.000000e+000
5.766116e+002,0.000000e+000
5.785400e+002,0.000000e+000
5.804685e+002,0.000000e+000
5.823970e+002,0.000000e+000
5.843254e+002,0.000000e+000
5.862539e+002,0.000000e+000
5.881824e+002,0.000000e+000
5.901108e+002,0.000000e+000
5.920393e+002,0.000000e+000
5.939678e+002,0.000000e+000
5.958962e+002,0.000000e+000
5.978247e+002,0.000000e+000
5.997532e+002,0.000000e+000
6.016816e+002,0.000000e+000
6.036101e+002,0.000000e+000
6.055386e+002,0.000000e+000
6.074670e+002,0.000000e+000
6.093955e+002,0.000000e+000
6.113240e+002,0.000000e+000
6.132524e+002,0.000000e+000
6.151809e+002,0.000000e+000
6.171094e+002,0.000000e+000
6.190378e+002,0.000000e+000
6.209663e+002,0.000000e+000
6.228948e+002,0.000000e+000
6.248232e+002,0.000000e+000
6.267517e+002,0.000000e+000
6.286802e+002,0.000000e+000
6.306086e+002,0.000000e+000
6.325371e+002,0.000000e+000
6.344656e+002,0.000000e+000
6.363940e+002,0.000000e+000
6.383225e+002,0.000000e+000
6.402510e+002,0.000000e+000
6.421794e+002,0.000000e+000
6.441079e+002,0.000000e+000
6.460364e+002,0.000000e+000
6.479648e+002,0.000000e+000
6.498933e+002,3.790751e-001
6.518218e+002,3.772663e-001
6.537502e+002,3.741325e-001
6.556787e+002,3.719758e-001
6.576072e+002,3.705069e-001
6.595356e+002,3.679456e-001
6.614641e+002,3.645142e-001
6.633926e+002,3.627825e-001
6.653210e+002,3.602180e-001
6.672495e+002,3.566851e-001
6.691780e+002,3.534037e-001
6.711064e+002,3.503825e-001
6.730349e+002,3.471782e-001
6.749634e+002,3.441722e-001
6.768918e+002,3.430535e-001
6.788203e+002,3.405152e-001
6.807488e+002,3.390739e-001
6.826772e+002,3.383205e-001
6.846057e+002,3.374019e-001
6.865342e+002,3.351214e-001
6.884626e+002,3.338718e-001
6.903911e+002,3.306332e-001
6.923196e+002,3.280448e-001
6.942480e+002,3.262515e-001
6.961765e+002,3.228652e-001
6.981050e+002,3.199264e-001
7.000334e+002,3.181794e-001
7.019619e+002,3.157951e-001
7.038904e+002,3.139753e-001
7.058188e+002,3.119860e-001
7.077473e+002,3.093826e-001
7.096758e+002,3.084674e-001
7.116042e+002,3.072233e-001
7.135327e+002,3.044727e-001
7.154612e+002,3.013431e-001
7.173896e+002,2.976430e-001
7.193181e+002,2.919760e-001
7.212466e+002,2.895461e-001
7.231750e+002,2.890406e-001
7.251035e+002,2.854970e-001
7.270320e+002,2.821667e-001
7.289604e+002,2.787592e-001
7.308889e+002,2.765580e-001
7.328174e+002,2.752651e-001
7.347458e+002,2.738398e-001
7.366743e+002,2.703989e-001
7.386028e+002,2.671702e-001
7.405313e+002,2.633913e-001
7.424597e+002,2.613325e-001
7.443882e+002,2.600480e-001
7.463167e+002,2.577382e-001
7.482451e+002,2.539601e-001
7.501736e+002,2.506386e-001
7.521021e+002,2.477250e-001
7.540305e+002,2.441473e-001
7.559590e+002,2.416907e-001
7.578875e+002,2.404302e-001
7.598159e+002,2.383852e-001
7.617444e+002,2.356356e-001
7.636729e+002,2.325206e-001
7.656013e+002,2.299564e-001
7.675298e+002,2.281607e-001
7.694583e+002,2.260649e-001
7.713867e+002,2.237236e-001
7.733152e+002,2.206112e-001
7.752437e+002,2.171344e-001
7.771721e+002,2.144146e-001
7.791006e+002,2.121635e-001
7.810291e+002,2.103457e-001
7.829575e+002,2.076466e-001
7.848860e+002,2.045451e-001
7.868145e+002,2.016586e-001
7.887429e+002,1.988024e-001
7.906714e+002,1.957831e-001
7.925999e+002,1.930876e-001
7.945283e+002,1.902772e-001
7.964568e+002,1.866355e-001
7.983853e+002,1.838320e-001
8.003137e+002,1.815215e-001
8.022422e+002,1.794306e-001
8.041707e+002,1.770577e-001
8.060991e+002,1.742779e-001
8.080276e+002,1.726091e-001
8.099561e+002,1.708768e-001
8.118845e+002,1.682246e-001
8.138130e+002,1.664079e-001
8.157415e+002,1.642953e-001
8.176699e+002,1.624902e-001
8.195984e+002,1.618479e-001
8.215269e+002,1.589191e-001
8.234553e+002,1.557369e-001
8.253838e+002,1.543382e-001
8.273123e+002,1.539795e-001
8.292407e+002,1.531568e-001
8.311692e+002,1.517241e-001
8.330977e+002,1.496402e-001
8.350261e+002,1.477809e-001
8.369546e+002,1.452802e-001
8.388831e+002,1.429105e-001
8.408115e+002,1.408484e-001
8.427400e+002,1.387353e-001
8.446685e+002,1.360354e-001
8.465969e+002,1.338298e-001
8.485254e+002,1.321012e-001
8.504539e+002,1.298782e-001
8.523823e+002,1.280789e-001
8.543108e+002,1.266655e-001
8.562393e+002,1.250268e-001
8.581677e+002,1.229493e-001
8.600962e+002,1.208198e-001
8.620247e+002,1.186813e-001
8.639531e+002,1.159620e-001
8.658816e+002,1.138488e-001
8.678101e+002,1.119395e-001
8.697385e+002,1.102629e-001
8.716670e+002,1.093758e-001
8.735955e+002,1.076157e-001
8.755239e+002,1.055853e-001
8.774524e+002,1.044483e-001
8.793809e+002,1.038712e-001
8.813093e+002,1.022303e-001
8.832378e+002,1.006952e-001
8.851663e+002,9.969202e-002
8.870947e+002,9.889296e-002
8.890232e+002,9.744749e-002
8.909517e+002,9.585292e-002
8.928801e+002,9.449094e-002
8.948086e+002,9.323111e-002
8.967371e+002,9.175341e-002
8.986655e+002,9.022235e-002
9.005940e+002,8.849846e-002
9.025225e+002,8.725733e-002
9.044509e+002,8.562642e-002
9.063794e+002,8.400989e-002
9.083079e+002,8.301146e-002
9.102363e+002,8.189730e-002
9.121648e+002,8.045337e-002
9.140933e+002,7.922394e-002
9.160217e+002,7.852162e-002
9.179502e+002,7.785798e-002
9.198787e+002,7.739991e-002
9.218071e+002,7.632433e-002
9.237356e+002,7.506692e-002
9.256641e+002,7.445683e-002
9.275925e+002,7.367717e-002
9.295210e+002,7.263525e-002
9.314495e+002,7.125214e-002
9.333779e+002,6.984811e-002
9.353064e+002,6.887289e-002
9.372349e+002,6.879594e-002
9.391633e+002,6.809419e-002
9.410918e+002,6.706087e-002
9.430203e+002,6.648903e-002
9.449487e+002,6.629603e-002
9.468772e+002,6.629927e-002
9.488057e+002,6.530625e-002
9.507341e+002,6.458525e-002
9.526626e+002,6.445935e-002
9.545911e+002,6.409075e-002
9.565195e+002,6.346347e-002
9.584480e+002,6.287826e-002
9.603765e+002,6.245090e-002
9.623049e+002,6.221093e-002
9.642334e+002,6.204062e-002
9.661619e+002,6.182731e-002
9.680903e+002,6.199869e-002
9.700188e+002,6.246295e-002
9.719473e+002,6.242201e-002
9.738757e+002,6.220733e-002
9.758042e+002,6.180527e-002
9.777327e+002,6.174385e-002
9.796611e+002,6.225162e-002
9.815896e+002,6.241884e-002
9.835181e+002,6.231017e-002
9.854465e+002,6.238544e-002
9.873750e+002,6.262715e-002
9.893035e+002,6.290013e-002
9.912319e+002,6.345108e-002
9.931604e+002,6.407478e-002
9.950889e+002,6.450459e-002
9.970173e+002,6.471413e-002
9.989458e+002,6.567010e-002
1.000874e+003,6.709869e-002
1.002803e+003,6.896912e-002
1.004731e+003,7.155299e-002
1.006660e+003,7.566392e-002
1.008588e+003,8.092079e-002
1.010517e+003,8.602766e-002
1.012445e+003,8.977305e-002
1.014374e+003,9.242991e-002
1.016302e+003,9.294032e-002
1.018230e+003,9.124652e-002
1.020159e+003,8.812826e-002
1.022087e+003,8.429179e-002
1.024016e+003,8.010080e-002
1.025944e+003,7.638489e-002
1.027873e+003,7.283210e-002
1.029801e+003,6.971266e-002
1.031730e+003,6.802083e-002
1.033658e+003,6.717268e-002
1.035587e+003,6.628750e-002
1.037515e+003,6.609505e-002
1.039444e+003,6.591681e-002
1.041372e+003,6.585993e-002
1.043301e+003,6.642435e-002
1.045229e+003,6.684791e-002
1.047157e+003,6.733038e-002
1.049086e+003,6.772052e-002
1.051014e+003,6.800455e-002
1.052943e+003,6.771223e-002
1.054871e+003,6.733758e-002
1.056800e+003,6.643949e-002
1.058728e+003,6.542312e-002
1.060657e+003,6.428777e-002
1.062585e+003,6.332403e-002
1.064514e+003,6.328860e-002
1.066442e+003,6.296294e-002
1.068371e+003,6.190056e-002
1.070299e+003,6.098738e-002
1.072228e+003,6.084522e-002
1.074156e+003,6.085502e-002
1.076084e+003,6.057311e-002
1.078013e+003,6.061460e-002
1.079941e+003,6.112337e-002
1.081870e+003,6.099840e-002
1.083798e+003,6.071713e-002
1.085727e+003,6.004904e-002
1.087655e+003,5.914172e-002
1.089584e+003,5.787317e-002
1.091512e+003,5.650155e-002
1.093441e+003,5.537329e-002
1.095369e+003,5.464816e-002
1.097298e+003,5.416339e-002
1.099226e+003,5.359829e-002
1.101155e+003,5.273255e-002
1.103083e+003,5.205312e-002
1.105011e+003,5.174186e-002
1.106940e+003,5.186905e-002
1.108868e+003,5.195307e-002
1.110797e+003,5.197301e-002
1.112725e+003,5.210904e-002
1.114654e+003,5.186326e-002
1.116582e+003,5.160030e-002
1.118511e+003,5.102768e-002
1.120439e+003,5.077353e-002
1.122368e+003,5.084989e-002
1.124296e+003,5.091996e-002
1.126225e+003,5.061234e-002
1.128153e+003,5.013428e-002
1.130082e+003,5.000287e-002
1.132010e+003,5.018251e-002
1.133938e+003,4.990838e-002
1.135867e+003,4.932466e-002
1.137795e+003,4.902395e-002
1.139724e+003,4.868709e-002
1.141652e+003,4.792174e-002
1.143581e+003,4.740176e-002
1.145509e+003,4.669871e-002
1.147438e+003,4.589822e-002
1.149366e+003,4.524550e-002
1.151295e+003,4.483532e-002
1.153223e+003,4.455198e-002
1.155152e+003,4.416039e-002
1.157080e+003,4.419410e-002
1.159009e+003,4.390792e-002
1.160937e+003,4.285491e-002
1.162865e+003,4.218871e-002
1.164794e+003,4.213851e-002
1.166722e+003,4.214303e-002
1.168651e+003,4.212255e-002
1.170579e+003,4.219915e-002
1.172508e+003,4.202906e-002
1.174436e+003,4.195074e-002
1.176365e+003,4.203578e-002
1.178293e+003,4.205436e-002
1.180222e+003,4.219696e-002
1.182150e+003,4.246203e-002
1.184079e+003,4.275074e-002
1.186007e+003,4.316576e-002
1.187936e+003,4.370564e-002
1.189864e+003,4.436871e-002
1.191792e+003,4.497384e-002
1.193721e+003,4.506499e-002
1.195649e+003,4.503779e-002
1.197578e+003,4.545107e-002
1.199506e+003,4.555376e-002
1.201435e+003,4.547388e-002
1.203363e+003,4.527294e-002
1.205292e+003,4.534697e-002
1.207220e+003,4.554008e-002
1.209149e+003,4.581647e-002
1.211077e+003,4.590404e-002
1.213006e+003,4.599502e-002
1.214934e+003,4.642204e-002
1.216863e+003,4.684074e-002
1.218791e+003,4.689515e-002
1.220719e+003,4.702225e-002
1.222648e+003,4.718105e-002
1.224576e+003,4.756983e-002
1.226505e+003,4.783991e-002
1.228433e+003,4.794235e-002
1.230362e+003,4.822039e-002
1.232290e+003,4.812488e-002
1.234219e+003,4.795515e-002
1.236147e+003,4.822991e-002
1.238076e+003,4.864146e-002
1.240004e+003,4.873442e-002
1.241933e+003,4.881861e-002
1.243861e+003,4.874532e-002
1.245790e+003,4.876382e-002
1.247718e+003,4.870988e-002
1.249646e+003,4.828793e-002
1.251575e+003,4.804641e-002
1.253503e+003,4.801691e-002
1.255432e+003,4.784893e-002
1.257360e+003,4.757224e-002
1.259289e+003,4.740210e-002
1.261217e+003,4.736145e-002
1.263146e+003,4.733100e-002
1.265074e+003,4.769056e-002
1.267003e+003,4.822950e-002
1.268931e+003,4.913317e-002
1.270860e+003,4.973613e-002
1.272788e+003,4.986043e-002
1.274717e+003,5.011933e-002
1.276645e+003,5.030650e-002
1.278573e+003,5.035977e-002
1.280502e+003,5.019140e-002
1.282430e+003,5.000124e-002
1.284359e+003,4.945326e-002
1.286287e+003,4.888747e-002
1.288216e+003,4.875422e-002
1.290144e+003,4.842500e-002
1.292073e+003,4.760163e-002
1.294001e+003,4.697931e-002
1.295930e+003,4.644741e-002
1.297858e+003,4.587686e-002
1.299787e+003,4.542966e-002
1.301715e+003,4.490575e-002
1.303644e+003,4.445613e-002
1.305572e+003,4.410489e-002
1.307500e+003,4.373668e-002
1.309429e+003,4.338445e-002
1.311357e+003,4.321352e-002
1.313286e+003,4.306345e-002
1.315214e+003,4.272076e-002
1.317143e+003,4.265773e-002
1.319071e+003,4.284969e-002
1.321000e+003,4.278167e-002
1.322928e+003,4.275326e-002
1.324857e+003,4.272167e-002
1.326785e+003,4.210350e-002
1.328714e+003,4.171957e-002
1.330642e+003,4.205845e-002
1.332571e+003,4.256801e-002
1.334499e+003,4.266201e-002
1.336427e+003,4.213128e-002
1.338356e+003,4.196180e-002
1.340284e+003,4.231883e-002
1.342213e+003,4.252094e-002
1.344141e+003,4.268658e-002
1.346070e+003,4.299800e-002
1.347998e+003,4.297667e-002
1.349927e+003,4.335245e-002
1.351855e+003,4.399583e-002
1.353784e+003,4.430214e-002
1.355712e+003,4.443851e-002
1.357641e+003,4.488389e-002
1.359569e+003,4.558916e-002
1.361498e+003,4.581894e-002
1.363426e+003,4.579258e-002
1.365354e+003,4.598735e-002
1.367283e+003,4.588246e-002
1.369211e+003,4.581283e-002
1.371140e+003,4.605856e-002
1.373068e+003,4.617308e-002
1.374997e+003,4.615031e-002
1.376925e+003,4.587712e-002
1.378854e+003,4.580211e-002
1.380782e+003,4.588979e-002
1.382711e+003,4.600378e-002
1.384639e+003,4.598415e-002
1.386568e+003,4.602736e-002
1.388496e+003,4.592315e-002
1.390425e+003,4.555399e-002
1.392353e+003,4.537522e-002
1.394281e+003,4.502739e-002
1.396210e+003,4.495290e-002
1.398138e+003,4.521914e-002
1.400067e+003,4.524083e-002
1.401995e+003,4.531979e-002
1.403924e+003,4.546984e-002
1.405852e+003,4.536293e-002
1.407781e+003,4.524407e-002
1.409709e+003,4.532240e-002
1.411638e+003,4.562832e-002
1.413566e+003,4.557621e-002
1.415495e+003,4.501530e-002
1.417423e+003,4.469739e-002
1.419352e+003,4.480284e-002
1.421280e+003,4.480703e-002
1.423208e+003,4.452566e-002
1.425137e+003,4.416883e-002
1.427065e+003,4.426861e-002
1.428994e+003,4.427686e-002
1.430922e+003,4.389820e-002
1.432851e+003,4.377600e-002
1.434779e+003,4.357020e-002
1.436708e+003,4.320855e-002
1.438636e+003,4.314135e-002
1.440565e+003,4.339847e-002
1.442493e+003,4.369861e-002
1.444422e+003,4.390814e-002
1.446350e+003,4.394916e-002
1.448279e+003,4.398128e-002
1.450207e+003,4.387038e-002
1.452135e+003,4.337870e-002
1.454064e+003,4.284830e-002
1.455992e+003,4.261998e-002
1.457921e+003,4.250234e-002
1.459849e+003,4.231218e-002
1.461778e+003,4.206776e-002
1.463706e+003,4.180785e-002
1.465635e+003,4.181183e-002
1.467563e+003,4.151788e-002
1.469492e+003,4.092289e-002
1.471420e+003,4.058243e-002
1.473349e+003,4.030269e-002
1.475277e+003,3.971310e-002
1.477206e+003,3.913990e-002
1.479134e+003,3.881457e-002
1.481063e+003,3.824393e-002
1.482991e+003,3.776880e-002
1.484919e+003,3.745409e-002
1.486848e+003,3.708231e-002
1.488776e+003,3.702385e-002
1.490705e+003,3.700097e-002
1.492633e+003,3.677088e-002
1.494562e+003,3.670103e-002
1.496490e+003,3.694913e-002
1.498419e+003,3.719607e-002
1.500347e+003,3.749531e-002
1.502276e+003,3.788220e-002
1.504204e+003,3.819805e-002
1.506133e+003,3.830657e-002
1.508061e+003,3.841844e-002
1.509990e+003,3.898648e-002
1.511918e+003,3.995334e-002
1.513846e+003,4.061146e-002
1.515775e+003,4.105529e-002
1.517703e+003,4.111939e-002
1.519632e+003,4.057220e-002
1.521560e+003,3.987175e-002
1.523489e+003,3.922639e-002
1.525417e+003,3.840621e-002
1.527346e+003,3.765070e-002
1.529274e+003,3.718405e-002
1.531203e+003,3.680153e-002
1.533131e+003,3.674300e-002
1.535060e+003,3.672584e-002
1.536988e+003,3.671567e-002
1.538917e+003,3.695541e-002
1.540845e+003,3.734853e-002
1.542773e+003,3.754928e-002
1.544702e+003,3.801838e-002
1.546630e+003,3.837157e-002
1.548559e+003,3.859694e-002
1.550487e+003,3.883094e-002
1.552416e+003,3.952678e-002
1.554344e+003,4.022329e-002
1.556273e+003,4.095194e-002
1.558201e+003,4.175430e-002
1.560130e+003,4.242305e-002
1.562058e+003,4.316876e-002
1.563987e+003,4.400841e-002
1.565915e+003,4.467738e-002
1.567844e+003,4.545420e-002
1.569772e+003,4.636154e-002
1.571700e+003,4.711808e-002
1.573629e+003,4.843304e-002
1.575557e+003,4.963000e-002
1.577486e+003,5.066033e-002
1.579414e+003,5.220529e-002
1.581343e+003,5.373957e-002
1.583271e+003,5.534266e-002
1.585200e+003,5.688592e-002
1.587128e+003,5.829139e-002
1.589057e+003,5.986249e-002
1.590985e+003,6.181738e-002
1.592914e+003,6.365529e-002
1.594842e+003,6.581501e-002
1.596771e+003,6.825022e-002
1.598699e+003,7.071098e-002
1.600627e+003,7.339098e-002
1.602556e+003,7.583109e-002
1.604484e+003,7.801074e-002
1.606413e+003,8.074921e-002
1.608341e+003,8.376933e-002
1.610270e+003,8.653480e-002
1.612198e+003,8.929475e-002
1.614127e+003,9.188784e-002
1.616055e+003,9.463289e-002
1.617984e+003,9.709345e-002
1.619912e+003,9.941803e-002
1.621841e+003,1.020009e-001
1.623769e+003,1.045412e-001
1.625698e+003,1.070350e-001
1.627626e+003,1.094493e-001
1.629554e+003,1.113285e-001
1.631483e+003,1.127232e-001
1.633411e+003,1.136856e-001
1.635340e+003,1.145912e-001
1.637268e+003,1.151666e-001
1.639197e+003,1.151973e-001
1.641125e+003,1.146458e-001
1.643054e+003,1.141054e-001
1.644982e+003,1.135422e-001
1.646911e+003,1.123951e-001
1.648839e+003,1.108308e-001
1.650768e+003,1.091773e-001
1.652696e+003,1.075040e-001
1.654625e+003,1.055830e-001
1.656553e+003,1.035472e-001
1.658481e+003,1.012504e-001
1.660410e+003,9.902234e-002
1.662338e+003,9.657528e-002
1.664267e+003,9.410925e-002
1.666195e+003,9.169763e-002
1.668124e+003,8.925113e-002
1.670052e+003,8.670529e-002
1.671981e+003,8.424246e-002
1.673909e+003,8.193888e-002
1.675838e+003,7.969330e-002
1.677766e+003,7.744101e-002
1.679695e+003,7.509331e-002
1.681623e+003,7.268997e-002
1.683552e+003,7.060692e-002
1.685480e+003,6.878328e-002
1.687408e+003,6.721301e-002
1.689337e+003,6.547970e-002
1.691265e+003,6.377834e-002
1.693194e+003,6.226255e-002
1.695122e+003,6.070517e-002
1.697051e+003,5.931911e-002
1.698979e+003,5.793417e-002
1.700908e+003,5.657793e-002
1.702836e+003,5.557531e-002
1.704765e+003,5.466447e-002
1.706693e+003,5.341997e-002
1.708622e+003,5.199729e-002
1.710550e+003,5.087839e-002
1.712479e+003,4.984130e-002
1.714407e+003,4.880734e-002
1.716335e+003,4.783192e-002
1.718264e+003,4.658213e-002
1.720192e+003,4.531280e-002
1.722121e+003,4.398109e-002
1.724049e+003,4.239123e-002
1.725978e+003,4.051666e-002
1.727906e+003,3.849867e-002
1.729835e+003,3.642129e-002
1.731763e+003,3.437181e-002
1.733692e+003,3.265379e-002
1.735620e+003,3.104264e-002
1.737549e+003,2.945723e-002
1.739477e+003,2.802901e-002
1.741406e+003,2.689855e-002
1.743334e+003,2.587483e-002
1.745262e+003,2.469117e-002
1.747191e+003,2.361711e-002
1.749119e+003,2.269248e-002
1.751048e+003,2.176967e-002
1.752976e+003,2.114117e-002
1.754905e+003,2.040723e-002
1.756833e+003,1.995042e-002
1.758762e+003,1.963959e-002
1.760690e+003,1.906699e-002
1.762619e+003,1.843468e-002
1.764547e+003,1.782093e-002
1.766476e+003,1.735820e-002
1.768404e+003,1.685715e-002
1.770333e+003,1.658618e-002
1.772261e+003,1.635137e-002
1.774189e+003,1.574698e-002
1.776118e+003,1.508692e-002
1.778046e+003,1.470510e-002
1.779975e+003,1.445866e-002
1.781903e+003,1.413260e-002
1.783832e+003,1.401275e-002
1.785760e+003,1.377689e-002
1.787689e+003,1.344212e-002
1.789617e+003,1.304357e-002
1.791546e+003,1.265952e-002
1.793474e+003,1.254351e-002
1.795403e+003,1.252547e-002
1.797331e+003,1.230723e-002
1.799260e+003,1.207124e-002
1.801188e+003,1.208419e-002
1.803116e+003,1.221793e-002
1.805045e+003,1.182289e-002
1.806973e+003,1.139338e-002
1.808902e+003,1.128475e-002
1.810830e+003,1.120753e-002
1.812759e+003,1.122847e-002
1.814687e+003,1.112012e-002
1.816616e+003,1.084496e-002
1.818544e+003,1.073158e-002
1.820473e+003,1.055100e-002
1.822401e+003,1.045399e-002
1.824330e+003,1.024737e-002
1.826258e+003,1.009158e-002
1.828187e+003,1.020595e-002
1.830115e+003,1.031268e-002
1.832043e+003,1.031078e-002
1.833972e+003,1.030661e-002
1.835900e+003,1.015225e-002
1.837829e+003,1.008168e-002
1.839757e+003,1.003159e-002
1.841686e+003,9.888318e-003
1.843614e+003,9.976325e-003
1.845543e+003,9.948625e-003
1.847471e+003,9.714190e-003
1.849400e+003,9.571801e-003
1.851328e+003,9.538438e-003
1.853257e+003,9.721983e-003
1.855185e+003,9.866896e-003
1.857114e+003,9.693725e-003
1.859042e+003,9.612348e-003
1.860970e+003,9.541249e-003
1.862899e+003,9.555814e-003
1.864827e+003,9.649985e-003
1.866756e+003,9.570412e-003
1.868684e+003,9.507211e-003
1.870613e+003,9.361911e-003
1.872541e+003,9.472770e-003
1.874470e+003,9.634741e-003
1.876398e+003,9.662352e-003
1.878327e+003,9.598832e-003
1.880255e+003,9.637112e-003
1.882183e+003,9.625831e-003
1.884112e+003,9.531427e-003
1.886040e+003,9.417675e-003
1.887969e+003,9.577898e-003
1.889897e+003,9.587721e-003
1.891826e+003,9.514052e-003
1.893754e+003,9.517337e-003
1.895683e+003,9.689998e-003
1.897611e+003,9.687220e-003
1.899540e+003,9.519607e-003
1.901468e+003,9.507990e-003
1.903397e+003,9.695622e-003
1.905325e+003,9.699316e-003
1.907254e+003,9.690676e-003
1.909182e+003,9.648597e-003
1.911110e+003,9.521368e-003
1.913039e+003,9.531122e-003
1.914967e+003,9.517540e-003
1.916896e+003,9.575358e-003
1.918824e+003,9.618006e-003
1.920753e+003,9.648732e-003
1.922681e+003,9.653983e-003
1.924610e+003,9.645310e-003
1.926538e+003,9.867812e-003
1.928467e+003,9.776778e-003
1.930395e+003,9.603507e-003
1.932324e+003,9.738451e-003
1.934252e+003,9.866117e-003
1.936181e+003,9.910318e-003
1.938109e+003,1.014903e-002
1.940037e+003,1.022020e-002
1.941966e+003,1.009541e-002
1.943894e+003,9.927370e-003
1.945823e+003,1.019452e-002
1.947751e+003,1.049370e-002
1.949680e+003,1.047337e-002
1.951608e+003,1.049699e-002
1.953537e+003,1.050219e-002
1.955465e+003,1.047914e-002
1.957394e+003,1.056285e-002
1.959322e+003,1.050019e-002
1.961251e+003,1.043532e-002
1.963179e+003,1.041085e-002
1.965108e+003,1.064485e-002
1.967036e+003,1.074717e-002
1.968964e+003,1.063069e-002
1.970893e+003,1.069249e-002
1.972821e+003,1.089131e-002
1.974750e+003,1.113749e-002
1.976678e+003,1.124830e-002
1.978607e+003,1.116292e-002
1.980535e+003,1.119104e-002
1.982464e+003,1.110754e-002
1.984392e+003,1.131369e-002
1.986321e+003,1.151047e-002
1.988249e+003,1.166933e-002
1.990178e+003,1.159047e-002
1.992106e+003,1.138192e-002
1.994035e+003,1.162008e-002
1.995963e+003,1.184983e-002
1.997891e+003,1.189672e-002
1.999820e+003,1.201470e-002
2.001748e+003,1.212330e-002
2.003677e+003,1.216457e-002
2.005605e+003,1.233518e-002
2.007534e+003,1.267490e-002
2.009462e+003,1.272106e-002
2.011391e+003,1.268879e-002
2.013319e+003,1.277235e-002
2.015248e+003,1.294177e-002
2.017176e+003,1.305228e-002
2.019105e+003,1.307222e-002
2.021033e+003,1.292460e-002
2.022962e+003,1.290074e-002
2.024890e+003,1.305283e-002
2.026818e+003,1.316019e-002
2.028747e+003,1.340688e-002
2.030675e+003,1.349465e-002
2.032604e+003,1.334114e-002
2.034532e+003,1.331634e-002
2.036461e+003,1.338443e-002
2.038389e+003,1.356089e-002
2.040318e+003,1.384329e-002
2.042246e+003,1.393843e-002
2.044175e+003,1.373165e-002
2.046103e+003,1.362161e-002
2.048032e+003,1.374410e-002
2.049960e+003,1.374218e-002
2.051889e+003,1.399061e-002
2.053817e+003,1.435625e-002
2.055746e+003,1.413483e-002
2.057674e+003,1.394613e-002
2.059603e+003,1.403920e-002
2.061531e+003,1.415475e-002
2.063459e+003,1.417224e-002
2.065388e+003,1.434334e-002
2.067316e+003,1.449491e-002
2.069245e+003,1.443969e-002
2.071173e+003,1.433567e-002
2.073102e+003,1.445647e-002
2.075030e+003,1.446510e-002
2.076959e+003,1.449950e-002
2.078887e+003,1.467916e-002
2.080816e+003,1.478528e-002
2.082744e+003,1.476989e-002
2.084673e+003,1.470027e-002
2.086601e+003,1.464252e-002
2.088530e+003,1.478401e-002
2.090458e+003,1.492904e-002
2.092386e+003,1.501427e-002
2.094315e+003,1.531216e-002
2.096243e+003,1.557887e-002
2.098172e+003,1.554775e-002
2.100100e+003,1.526995e-002
2.102029e+003,1.512027e-002
2.103957e+003,1.523940e-002
2.105886e+003,1.523477e-002
2.107814e+003,1.531209e-002
2.109743e+003,1.530870e-002
2.111671e+003,1.532730e-002
2.113600e+003,1.547303e-002
2.115528e+003,1.546767e-002
2.117457e+003,1.555026e-002
2.119385e+003,1.569878e-002
2.121313e+003,1.564292e-002
2.123242e+003,1.552172e-002
2.125170e+003,1.545109e-002
2.127099e+003,1.542204e-002
2.129027e+003,1.539661e-002
2.130956e+003,1.553546e-002
2.132884e+003,1.545490e-002
2.134813e+003,1.526020e-002
2.136741e+003,1.539331e-002
2.138670e+003,1.535871e-002
2.140598e+003,1.511523e-002
2.142527e+003,1.505766e-002
2.144455e+003,1.505866e-002
2.146384e+003,1.501657e-002
2.148312e+003,1.486547e-002
2.150240e+003,1.473153e-002
2.152169e+003,1.477345e-002
2.154097e+003,1.483214e-002
2.156026e+003,1.490905e-002
2.157954e+003,1.489914e-002
2.159883e+003,1.475316e-002
2.161811e+003,1.469249e-002
2.163740e+003,1.463889e-002
2.165668e+003,1.461504e-002
2.167597e+003,1.447045e-002
2.169525e+003,1.441318e-002
2.171454e+003,1.434112e-002
2.173382e+003,1.421877e-002
2.175311e+003,1.420853e-002
2.177239e+003,1.408472e-002
2.179167e+003,1.373220e-002
2.181096e+003,1.365765e-002
2.183024e+003,1.393778e-002
2.184953e+003,1.405251e-002
2.186881e+003,1.388475e-002
2.188810e+003,1.374057e-002
2.190738e+003,1.374502e-002
2.192667e+003,1.354640e-002
2.194595e+003,1.311798e-002
2.196524e+003,1.307410e-002
2.198452e+003,1.336629e-002
2.200381e+003,1.365218e-002
2.202309e+003,1.379177e-002
2.204238e+003,1.339995e-002
2.206166e+003,1.298707e-002
2.208094e+003,1.274614e-002
2.210023e+003,1.281449e-002
2.211951e+003,1.276365e-002
2.213880e+003,1.269681e-002
2.215808e+003,1.251967e-002
2.217737e+003,1.229206e-002
2.219665e+003,1.239464e-002
2.221594e+003,1.250054e-002
2.223522e+003,1.232485e-002
2.225451e+003,1.215656e-002
2.227379e+003,1.195795e-002
2.229308e+003,1.183048e-002
2.231236e+003,1.185892e-002
2.233165e+003,1.179259e-002
2.235093e+003,1.175412e-002
2.237021e+003,1.182565e-002
2.238950e+003,1.191868e-002
2.240878e+003,1.169581e-002
2.242807e+003,1.152306e-002
2.244735e+003,1.157329e-002
2.246664e+003,1.163124e-002
2.248592e+003,1.146233e-002
2.250521e+003,1.113352e-002
2.252449e+003,1.083769e-002
2.254378e+003,1.075685e-002
2.256306e+003,1.085930e-002
2.258235e+003,1.077322e-002
2.260163e+003,1.056540e-002
2.262092e+003,1.045572e-002
2.264020e+003,1.036287e-002
2.265948e+003,1.024717e-002
2.267877e+003,1.018146e-002
2.269805e+003,1.005058e-002
2.271734e+003,1.008632e-002
2.273662e+003,1.013370e-002
2.275591e+003,1.021935e-002
2.277519e+003,1.015551e-002
2.279448e+003,1.011691e-002
2.281376e+003,9.999244e-003
2.283305e+003,9.901132e-003
2.285233e+003,9.667704e-003
2.287162e+003,9.605980e-003
2.289090e+003,9.787655e-003
2.291019e+003,9.866082e-003
2.292947e+003,9.839950e-003
2.294875e+003,9.704940e-003
2.296804e+003,9.369325e-003
2.298732e+003,9.182205e-003
2.300661e+003,9.253077e-003
2.302589e+003,9.632538e-003
2.304518e+003,9.727404e-003
2.306446e+003,9.408939e-003
2.308375e+003,9.280934e-003
2.310303e+003,9.236255e-003
2.312232e+003,9.236458e-003
2.314160e+003,9.149414e-003
2.316089e+003,9.076056e-003
2.318017e+003,8.940133e-003
2.319946e+003,8.916052e-003
2.321874e+003,9.224308e-003
2.323802e+003,9.309843e-003
2.325731e+003,8.968140e-003
2.327659e+003,9.067192e-003
2.329588e+003,9.063808e-003
2.331516e+003,8.818387e-003
2.333445e+003,9.028184e-003
2.335373e+003,9.155133e-003
2.337302e+003,8.885209e-003
2.339230e+003,8.704890e-003
2.341159e+003,8.744173e-003
2.343087e+003,8.693666e-003
2.345016e+003,8.676731e-003
2.346944e+003,8.675074e-003
2.348873e+003,8.645127e-003
2.350801e+003,8.582837e-003
2.352729e+003,8.379842e-003
2.354658e+003,8.230021e-003
2.356586e+003,8.371228e-003
2.358515e+003,8.259401e-003
2.360443e+003,7.994317e-003
2.362372e+003,8.016863e-003
2.364300e+003,8.093351e-003
2.366229e+003,7.899661e-003
2.368157e+003,7.825703e-003
2.370086e+003,7.744035e-003
2.372014e+003,7.810253e-003
2.373943e+003,7.824220e-003
2.375871e+003,7.496156e-003
2.377800e+003,7.280594e-003
2.379728e+003,7.136138e-003
2.381656e+003,7.200645e-003
2.383585e+003,7.240702e-003
2.385513e+003,7.249900e-003
2.387442e+003,7.323489e-003
2.389370e+003,7.031160e-003
2.391299e+003,6.802871e-003
2.393227e+003,6.964355e-003
2.395156e+003,6.937689e-003
2.397084e+003,6.526298e-003
2.399013e+003,6.283785e-003
2.400941e+003,6.398770e-003
2.402870e+003,6.493840e-003
2.404798e+003,6.256489e-003
2.406727e+003,6.280995e-003
2.408655e+003,6.502350e-003
2.410583e+003,6.429639e-003
2.412512e+003,6.319117e-003
2.414440e+003,6.221732e-003
2.416369e+003,6.156160e-003
2.418297e+003,6.433709e-003
2.420226e+003,6.522262e-003
2.422154e+003,6.252388e-003
2.424083e+003,5.991684e-003
2.426011e+003,5.900082e-003
2.427940e+003,5.869452e-003
2.429868e+003,6.021921e-003
2.431797e+003,6.043087e-003
2.433725e+003,6.204658e-003
2.435654e+003,6.552030e-003
2.437582e+003,6.347863e-003
2.439510e+003,5.979692e-003
2.441439e+003,5.783315e-003
2.443367e+003,5.753734e-003
2.445296e+003,5.729022e-003
2.447224e+003,5.745071e-003
2.449153e+003,5.751988e-003
2.451081e+003,5.710154e-003
2.453010e+003,5.732951e-003
2.454938e+003,5.828312e-003
2.456867e+003,5.897866e-003
2.458795e+003,5.755681e-003
2.460724e+003,5.633011e-003
2.462652e+003,5.632877e-003
2.464581e+003,5.825861e-003
2.466509e+003,6.067547e-003
2.468438e+003,5.939213e-003
2.470366e+003,5.632407e-003
2.472294e+003,5.643484e-003
2.474223e+003,5.757628e-003
2.476151e+003,5.702668e-003
2.478080e+003,5.633280e-003
2.480008e+003,5.504303e-003
2.481937e+003,5.698136e-003
2.483865e+003,6.017318e-003
2.485794e+003,6.030790e-003
2.487722e+003,5.805511e-003
2.489651e+003,5.601695e-003
2.491579e+003,5.525645e-003
2.493508e+003,5.568031e-003
2.495436e+003,5.818876e-003
2.497365e+003,5.713210e-003
2.499293e+003,5.647915e-003
2.501221e+003,5.660033e-003
2.503150e+003,5.507893e-003
2.505078e+003,5.667352e-003
2.507007e+003,5.804873e-003
2.508935e+003,5.560111e-003
2.510864e+003,5.355404e-003
2.512792e+003,5.429746e-003
2.514721e+003,5.609918e-003
2.516649e+003,5.577328e-003
2.518578e+003,5.563501e-003
2.520506e+003,5.820286e-003
2.522435e+003,6.032739e-003
2.524363e+003,5.830395e-003
2.526292e+003,5.705353e-003
2.528220e+003,5.514101e-003
2.530148e+003,5.559776e-003
2.532077e+003,5.590955e-003
2.534005e+003,5.512289e-003
2.535934e+003,5.368520e-003
2.537862e+003,5.102513e-003
2.539791e+003,5.319311e-003
2.541719e+003,5.731541e-003
2.543648e+003,5.845238e-003
2.545576e+003,5.430887e-003
2.547505e+003,5.314849e-003
2.549433e+003,5.378249e-003
2.551362e+003,5.450045e-003
2.553290e+003,5.541451e-003
2.555219e+003,5.656912e-003
2.557147e+003,5.533800e-003
2.559075e+003,5.472694e-003
2.561004e+003,5.583738e-003
2.562932e+003,5.711833e-003
2.564861e+003,5.688198e-003
2.566789e+003,5.528967e-003
2.568718e+003,5.304888e-003
2.570646e+003,5.197971e-003
2.572575e+003,5.387508e-003
2.574503e+003,5.411663e-003
2.576432e+003,5.350238e-003
2.578360e+003,5.521316e-003
2.580289e+003,5.627574e-003
2.582217e+003,5.479606e-003
2.584146e+003,5.376269e-003
2.586074e+003,5.194718e-003
2.588002e+003,5.275305e-003
2.589931e+003,5.293551e-003
2.591859e+003,5.225603e-003
2.593788e+003,5.419446e-003
2.595716e+003,5.433705e-003
2.597645e+003,5.389487e-003
2.599573e+003,5.371808e-003
2.601502e+003,5.264573e-003
2.603430e+003,5.372579e-003
2.605359e+003,5.559171e-003
2.607287e+003,5.577026e-003
2.609216e+003,5.604750e-003
2.611144e+003,5.446522e-003
2.613073e+003,5.460983e-003
2.615001e+003,5.573133e-003
2.616929e+003,5.576254e-003
2.618858e+003,5.561319e-003
2.620786e+003,5.405456e-003
2.622715e+003,5.339604e-003
2.624643e+003,5.357249e-003
2.626572e+003,5.596425e-003
2.628500e+003,5.838924e-003
2.630429e+003,5.709483e-003
2.632357e+003,5.539773e-003
2.634286e+003,5.425955e-003
2.636214e+003,5.504202e-003
2.638143e+003,5.866967e-003
2.640071e+003,5.897563e-003
2.642000e+003,5.658556e-003
2.643928e+003,5.425552e-003
2.645856e+003,5.698471e-003
2.647785e+003,5.818809e-003
2.649713e+003,5.511853e-003
2.651642e+003,5.476150e-003
2.653570e+003,5.564608e-003
2.655499e+003,5.623881e-003
2.657427e+003,5.737953e-003
2.659356e+003,5.962089e-003
2.661284e+003,5.997362e-003
2.663213e+003,5.851618e-003
2.665141e+003,5.903441e-003
2.667070e+003,5.928128e-003
2.668998e+003,6.074334e-003
2.670927e+003,6.055586e-003
2.672855e+003,5.948854e-003
2.674783e+003,6.254539e-003
2.676712e+003,6.450288e-003
2.678640e+003,6.251177e-003
2.680569e+003,6.095537e-003
2.682497e+003,5.991013e-003
2.684426e+003,6.079072e-003
2.686354e+003,6.297165e-003
2.688283e+003,6.373316e-003
2.690211e+003,6.346989e-003
2.692140e+003,6.259984e-003
2.694068e+003,6.208691e-003
2.695997e+003,6.276893e-003
2.697925e+003,6.192692e-003
2.699854e+003,6.153169e-003
2.701782e+003,6.145977e-003
2.703710e+003,6.370929e-003
2.705639e+003,6.366188e-003
2.707567e+003,6.335726e-003
2.709496e+003,6.547119e-003
2.711424e+003,6.480724e-003
2.713353e+003,6.351797e-003
2.715281e+003,6.732265e-003
2.717210e+003,6.777730e-003
2.719138e+003,6.489098e-003
2.721067e+003,6.571708e-003
2.722995e+003,6.762417e-003
2.724924e+003,7.191280e-003
2.726852e+003,7.354121e-003
2.728781e+003,7.169013e-003
2.730709e+003,6.936140e-003
2.732637e+003,6.966846e-003
2.734566e+003,7.186901e-003
2.736494e+003,7.075849e-003
2.738423e+003,7.139741e-003
2.740351e+003,7.283560e-003
2.742280e+003,7.483582e-003
2.744208e+003,7.783097e-003
2.746137e+003,7.575080e-003
2.748065e+003,7.728452e-003
2.749994e+003,8.017606e-003
2.751922e+003,8.056759e-003
2.753851e+003,8.147332e-003
2.755779e+003,8.282196e-003
2.757708e+003,8.347414e-003
2.759636e+003,8.336572e-003
2.761564e+003,8.336167e-003
2.763493e+003,8.354643e-003
2.765421e+003,8.704382e-003
2.767350e+003,8.916322e-003
2.769278e+003,8.913583e-003
2.771207e+003,8.819706e-003
2.773135e+003,8.907901e-003
2.775064e+003,8.875739e-003
2.776992e+003,8.980723e-003
2.778921e+003,9.343527e-003
2.780849e+003,9.606996e-003
2.782778e+003,9.660793e-003
2.784706e+003,9.623663e-003
2.786635e+003,9.632844e-003
2.788563e+003,9.938387e-003
2.790491e+003,1.008171e-002
2.792420e+003,9.943066e-003
2.794348e+003,1.003563e-002
2.796277e+003,1.036110e-002
2.798205e+003,1.044299e-002
2.800134e+003,1.054540e-002
2.802062e+003,1.078317e-002
2.803991e+003,1.117322e-002
2.805919e+003,1.119012e-002
2.807848e+003,1.106495e-002
2.809776e+003,1.124677e-002
2.811705e+003,1.183512e-002
2.813633e+003,1.206964e-002
2.815562e+003,1.218474e-002
2.817490e+003,1.226261e-002
2.819418e+003,1.201534e-002
2.821347e+003,1.192805e-002
2.823275e+003,1.244029e-002
2.825204e+003,1.293934e-002
2.827132e+003,1.345425e-002
2.829061e+003,1.400221e-002
2.830989e+003,1.423274e-002
2.832918e+003,1.424654e-002
2.834846e+003,1.413527e-002
2.836775e+003,1.447638e-002
2.838703e+003,1.501355e-002
2.840632e+003,1.544412e-002
2.842560e+003,1.541710e-002
2.844489e+003,1.549446e-002
2.846417e+003,1.581975e-002
2.848345e+003,1.578354e-002
2.850274e+003,1.548450e-002
2.852202e+003,1.542067e-002
2.854131e+003,1.556403e-002
2.856059e+003,1.567473e-002
2.857988e+003,1.564364e-002
2.859916e+003,1.580230e-002
2.861845e+003,1.605964e-002
2.863773e+003,1.586216e-002
2.865702e+003,1.615761e-002
2.867630e+003,1.683193e-002
2.869558e+003,1.699364e-002
2.871487e+003,1.704585e-002
2.873415e+003,1.740693e-002
2.875344e+003,1.801658e-002
2.877272e+003,1.845750e-002
2.879201e+003,1.840118e-002
2.881129e+003,1.830637e-002
2.883058e+003,1.863264e-002
2.884986e+003,1.890942e-002
2.886915e+003,1.887271e-002
2.888843e+003,1.957764e-002
2.890771e+003,2.034650e-002
2.892700e+003,2.056701e-002
2.894628e+003,2.107362e-002
2.896557e+003,2.148800e-002
2.898485e+003,2.154806e-002
2.900414e+003,2.160064e-002
2.902342e+003,2.189054e-002
2.904271e+003,2.239196e-002
2.906199e+003,2.269614e-002
2.908128e+003,2.329379e-002
2.910056e+003,2.366778e-002
2.911985e+003,2.360249e-002
2.913913e+003,2.402181e-002
2.915842e+003,2.462209e-002
2.917770e+003,2.489271e-002
2.919698e+003,2.470955e-002
2.921627e+003,2.481103e-002
2.923555e+003,2.575179e-002
2.925484e+003,2.628730e-002
2.927412e+003,2.649043e-002
2.929341e+003,2.698612e-002
2.931269e+003,2.749809e-002
2.933198e+003,2.804541e-002
2.935126e+003,2.874554e-002
2.937055e+003,2.911982e-002
2.938983e+003,2.929514e-002
2.940912e+003,2.986013e-002
2.942840e+003,3.034501e-002
2.944769e+003,3.083385e-002
2.946697e+003,3.157085e-002
2.948625e+003,3.227541e-002
2.950554e+003,3.268437e-002
2.952482e+003,3.326144e-002
2.954411e+003,3.364794e-002
2.956339e+003,3.360079e-002
2.958268e+003,3.388689e-002
2.960196e+003,3.371548e-002
2.962125e+003,3.355630e-002
2.964053e+003,3.399928e-002
2.965982e+003,3.472301e-002
2.967910e+003,3.503722e-002
2.969839e+003,3.545144e-002
2.971767e+003,3.598505e-002
2.973696e+003,3.630496e-002
2.975624e+003,3.654692e-002
2.977552e+003,3.689083e-002
2.979481e+003,3.740010e-002
2.981409e+003,3.809759e-002
2.983338e+003,3.860281e-002
2.985266e+003,3.889175e-002
2.987195e+003,3.943845e-002
2.989123e+003,4.012273e-002
2.991052e+003,4.067761e-002
2.992980e+003,4.127277e-002
2.994909e+003,4.135625e-002
2.996837e+003,4.168175e-002
2.998766e+003,4.224287e-002
3.000694e+003,4.260536e-002
3.002623e+003,4.343227e-002
3.004551e+003,4.429818e-002
3.006479e+003,4.461260e-002
3.008408e+003,4.487996e-002
3.010336e+003,4.513932e-002
3.012265e+003,4.568692e-002
3.014193e+003,4.661953e-002
3.016122e+003,4.726084e-002
3.018050e+003,4.776866e-002
3.019979e+003,4.858161e-002
3.021907e+003,4.953102e-002
3.023836e+003,5.030106e-002
3.025764e+003,5.112756e-002
3.027693e+003,5.169707e-002
3.029621e+003,5.260799e-002
3.031550e+003,5.319985e-002
3.033478e+003,5.381959e-002
3.035406e+003,5.488696e-002
3.037335e+003,5.640287e-002
3.039263e+003,5.780958e-002
3.041192e+003,5.853239e-002
3.043120e+003,5.937396e-002
3.045049e+003,6.033742e-002
3.046977e+003,6.120100e-002
3.048906e+003,6.206630e-002
3.050834e+003,6.290691e-002
3.052763e+003,6.389195e-002
3.054691e+003,6.460908e-002
3.056620e+003,6.557018e-002
3.058548e+003,6.670270e-002
3.060477e+003,6.775832e-002
3.062405e+003,6.910347e-002
3.064333e+003,7.052198e-002
3.066262e+003,7.179790e-002
3.068190e+003,7.280875e-002
3.070119e+003,7.396666e-002
3.072047e+003,7.543455e-002
3.073976e+003,7.658795e-002
3.075904e+003,7.728469e-002
3.077833e+003,7.853405e-002
3.079761e+003,7.998777e-002
3.081690e+003,8.144918e-002
3.083618e+003,8.293565e-002
3.085547e+003,8.472510e-002
3.087475e+003,8.580810e-002
3.089404e+003,8.693141e-002
3.091332e+003,8.809656e-002
3.093260e+003,8.928625e-002
3.095189e+003,9.046867e-002
3.097117e+003,9.199913e-002
3.099046e+003,9.391951e-002
3.100974e+003,9.517276e-002
3.102903e+003,9.687837e-002
3.104831e+003,9.874342e-002
3.106760e+003,9.986604e-002
3.108688e+003,1.015651e-001
3.110617e+003,1.036383e-001
3.112545e+003,1.052768e-001
3.114474e+003,1.066670e-001
3.116402e+003,1.081184e-001
3.118331e+003,1.093320e-001
3.120259e+003,1.104530e-001
3.122188e+003,1.123082e-001
3.124116e+003,1.141344e-001
3.126044e+003,1.155392e-001
3.127973e+003,1.175412e-001
3.129901e+003,1.197740e-001
3.131830e+003,1.222290e-001
3.133758e+003,1.240551e-001
3.135687e+003,1.257403e-001
3.137615e+003,1.275664e-001
3.139544e+003,1.293529e-001
3.141472e+003,1.312236e-001
3.143401e+003,1.326304e-001
3.145329e+003,1.338195e-001
3.147258e+003,1.356104e-001
3.149186e+003,1.376115e-001
3.151115e+003,1.398298e-001
3.153043e+003,1.419997e-001
3.154971e+003,1.428489e-001
3.156900e+003,1.441799e-001
3.158828e+003,1.466774e-001
3.160757e+003,1.484125e-001
3.162685e+003,1.505803e-001
3.164614e+003,1.524133e-001
3.166542e+003,1.539992e-001
3.168471e+003,1.564243e-001
3.170399e+003,1.583900e-001
3.172328e+003,1.593619e-001
3.174256e+003,1.608960e-001
3.176185e+003,1.633322e-001
3.178113e+003,1.650756e-001
3.180042e+003,1.663975e-001
3.181970e+003,1.681818e-001
3.183898e+003,1.699068e-001
3.185827e+003,1.715383e-001
3.187755e+003,1.737533e-001
3.189684e+003,1.750681e-001
3.191612e+003,1.764111e-001
3.193541e+003,1.778934e-001
3.195469e+003,1.790878e-001
3.197398e+003,1.809261e-001
3.199326e+003,1.821646e-001
3.201255e+003,1.841599e-001
3.203183e+003,1.865246e-001
3.205112e+003,1.882089e-001
3.207040e+003,1.894754e-001
3.208969e+003,1.904627e-001
3.210897e+003,1.912817e-001
3.212825e+003,1.921946e-001
3.214754e+003,1.935536e-001
3.216682e+003,1.946138e-001
3.218611e+003,1.951241e-001
3.220539e+003,1.955795e-001
3.222468e+003,1.961675e-001
3.224396e+003,1.974967e-001
3.226325e+003,1.985167e-001
3.228253e+003,1.996302e-001
3.230182e+003,2.005891e-001
3.232110e+003,2.013026e-001
3.234039e+003,2.021079e-001
3.235967e+003,2.030735e-001
3.237896e+003,2.040585e-001
3.239824e+003,2.049138e-001
3.241752e+003,2.058519e-001
3.243681e+003,2.072566e-001
3.245609e+003,2.072181e-001
3.247538e+003,2.067747e-001
3.249466e+003,2.076649e-001
3.251395e+003,2.082980e-001
3.253323e+003,2.089226e-001
3.255252e+003,2.092811e-001
3.257180e+003,2.098189e-001
3.259109e+003,2.096812e-001
3.261037e+003,2.103210e-001
3.262966e+003,2.109723e-001
3.264894e+003,2.112739e-001
3.266823e+003,2.107916e-001
3.268751e+003,2.109781e-001
3.270679e+003,2.117703e-001
3.272608e+003,2.116124e-001
3.274536e+003,2.113953e-001
3.276465e+003,2.116038e-001
3.278393e+003,2.116151e-001
3.280322e+003,2.112478e-001
3.282250e+003,2.114926e-001
3.284179e+003,2.120052e-001
3.286107e+003,2.122823e-001
3.288036e+003,2.128913e-001
3.289964e+003,2.130864e-001
3.291893e+003,2.132078e-001
3.293821e+003,2.132405e-001
3.295750e+003,2.125686e-001
3.297678e+003,2.128939e-001
3.299606e+003,2.129800e-001
3.301535e+003,2.129716e-001
3.303463e+003,2.143417e-001
3.305392e+003,2.143931e-001
3.307320e+003,2.141844e-001
3.309249e+003,2.142708e-001
3.311177e+003,2.138473e-001
3.313106e+003,2.139029e-001
3.315034e+003,2.147582e-001
3.316963e+003,2.144509e-001
3.318891e+003,2.135947e-001
3.320820e+003,2.139406e-001
3.322748e+003,2.142175e-001
3.324677e+003,2.138384e-001
3.326605e+003,2.143601e-001
3.328533e+003,2.157319e-001
3.330462e+003,2.157306e-001
3.332390e+003,2.142557e-001
3.334319e+003,2.144625e-001
3.336247e+003,2.155913e-001
3.338176e+003,2.155767e-001
3.340104e+003,2.152842e-001
3.342033e+003,2.157933e-001
3.343961e+003,2.161777e-001
3.345890e+003,2.159258e-001
3.347818e+003,2.152961e-001
3.349747e+003,2.154342e-001
3.351675e+003,2.151829e-001
3.353604e+003,2.146549e-001
3.355532e+003,2.145863e-001
3.357460e+003,2.144874e-001
3.359389e+003,2.142493e-001
3.361317e+003,2.141639e-001
3.363246e+003,2.127657e-001
3.365174e+003,2.121279e-001
3.367103e+003,2.127864e-001
3.369031e+003,2.122971e-001
3.370960e+003,2.116742e-001
3.372888e+003,2.119748e-001
3.374817e+003,2.118037e-001
3.376745e+003,2.108023e-001
3.378674e+003,2.099489e-001
3.380602e+003,2.098056e-001
3.382531e+003,2.090402e-001
3.384459e+003,2.079266e-001
3.386387e+003,2.078109e-001
3.388316e+003,2.081007e-001
3.390244e+003,2.068575e-001
3.392173e+003,2.053442e-001
3.394101e+003,2.041784e-001
3.396030e+003,2.036753e-001
3.397958e+003,2.033555e-001
3.399887e+003,2.025168e-001
3.401815e+003,2.009152e-001
3.403744e+003,1.999556e-001
3.405672e+003,1.985080e-001
3.407601e+003,1.970490e-001
3.409529e+003,1.963606e-001
3.411458e+003,1.954336e-001
3.413386e+003,1.948137e-001
3.415314e+003,1.930928e-001
3.417243e+003,1.909754e-001
3.419171e+003,1.893090e-001
3.421100e+003,1.871681e-001
3.423028e+003,1.864307e-001
3.424957e+003,1.862362e-001
3.426885e+003,1.847431e-001
3.428814e+003,1.825809e-001
3.430742e+003,1.807441e-001
3.432671e+003,1.801373e-001
3.434599e+003,1.787305e-001
3.436528e+003,1.763830e-001
3.438456e+003,1.758321e-001
3.440385e+003,1.749422e-001
3.442313e+003,1.726616e-001
3.444241e+003,1.712507e-001
3.446170e+003,1.703611e-001
3.448098e+003,1.681714e-001
3.450027e+003,1.667188e-001
3.451955e+003,1.654859e-001
3.453884e+003,1.636744e-001
3.455812e+003,1.627919e-001
3.457741e+003,1.619969e-001
3.459669e+003,1.599494e-001
3.461598e+003,1.582142e-001
3.463526e+003,1.571080e-001
3.465455e+003,1.555811e-001
3.467383e+003,1.536119e-001
3.469312e+003,1.513549e-001
3.471240e+003,1.500802e-001
3.473168e+003,1.496862e-001
3.475097e+003,1.482956e-001
3.477025e+003,1.460255e-001
3.478954e+003,1.442239e-001
3.480882e+003,1.423953e-001
3.482811e+003,1.414057e-001
3.484739e+003,1.404693e-001
3.486668e+003,1.388972e-001
3.488596e+003,1.370578e-001
3.490525e+003,1.356449e-001
3.492453e+003,1.346653e-001
3.494382e+003,1.335102e-001
3.496310e+003,1.322867e-001
3.498239e+003,1.303276e-001
3.500167e+003,1.288231e-001
3.502095e+003,1.272690e-001
3.504024e+003,1.254275e-001
3.505952e+003,1.247827e-001
3.507881e+003,1.239076e-001
3.509809e+003,1.215455e-001
3.511738e+003,1.199250e-001
3.513666e+003,1.192170e-001
3.515595e+003,1.177356e-001
3.517523e+003,1.159491e-001
3.519452e+003,1.146741e-001
3.521380e+003,1.133928e-001
3.523309e+003,1.121813e-001
3.525237e+003,1.109224e-001
3.527166e+003,1.098744e-001
3.529094e+003,1.075395e-001
3.531022e+003,1.055130e-001
3.532951e+003,1.034474e-001
3.534879e+003,1.012766e-001
3.536808e+003,9.968522e-002
3.538736e+003,9.854556e-002
3.540665e+003,9.804426e-002
3.542593e+003,9.735536e-002
3.544522e+003,9.559005e-002
3.546450e+003,9.349875e-002
3.548379e+003,9.197681e-002
3.550307e+003,9.008171e-002
3.552236e+003,8.867521e-002
3.554164e+003,8.786407e-002
3.556093e+003,8.702974e-002
3.558021e+003,8.570880e-002
3.559949e+003,8.378456e-002
3.561878e+003,8.233500e-002
3.563806e+003,8.171254e-002
3.565735e+003,8.031650e-002
3.567663e+003,7.884900e-002
3.569592e+003,7.812583e-002
3.571520e+003,7.655314e-002
3.573449e+003,7.538848e-002
3.575377e+003,7.429601e-002
3.577306e+003,7.295398e-002
3.579234e+003,7.140975e-002
3.581163e+003,7.097009e-002
3.583091e+003,7.000598e-002
3.585020e+003,6.847869e-002
3.586948e+003,6.680494e-002
3.588876e+003,6.575845e-002
3.590805e+003,6.487946e-002
3.592733e+003,6.360619e-002
3.594662e+003,6.243529e-002
3.596590e+003,6.108360e-002
3.598519e+003,6.002263e-002
3.600447e+003,5.852659e-002
3.602376e+003,5.699997e-002
3.604304e+003,5.603946e-002
3.606233e+003,5.524654e-002
3.608161e+003,5.418899e-002
3.610090e+003,5.318539e-002
3.612018e+003,5.237186e-002
3.613947e+003,5.095327e-002
3.615875e+003,4.969816e-002
3.617803e+003,4.839530e-002
3.619732e+003,4.723335e-002
3.621660e+003,4.621443e-002
3.623589e+003,4.586464e-002
3.625517e+003,4.533321e-002
3.627446e+003,4.461282e-002
3.629374e+003,4.347046e-002
3.631303e+003,4.192508e-002
3.633231e+003,4.037377e-002
3.635160e+003,3.905253e-002
3.637088e+003,3.745326e-002
3.639017e+003,3.637024e-002
3.640945e+003,3.469006e-002
3.642874e+003,3.265254e-002
3.644802e+003,3.132107e-002
3.646730e+003,3.066773e-002
3.648659e+003,2.971446e-002
3.650587e+003,2.887669e-002
3.652516e+003,2.812766e-002
3.654444e+003,2.675376e-002
3.656373e+003,2.548446e-002
3.658301e+003,2.376222e-002
3.660230e+003,2.258964e-002
3.662158e+003,2.185712e-002
3.664087e+003,2.084263e-002
3.666015e+003,1.957844e-002
3.667944e+003,1.891503e-002
3.669872e+003,1.858640e-002
3.671801e+003,1.744891e-002
3.673729e+003,1.629172e-002
3.675657e+003,1.551970e-002
3.677586e+003,1.428619e-002
3.679514e+003,1.338826e-002
3.681443e+003,1.267282e-002
3.683371e+003,1.159153e-002
3.685300e+003,1.121997e-002
3.687228e+003,1.033762e-002
3.689157e+003,9.733538e-003
3.691085e+003,9.801280e-003
3.693014e+003,9.220889e-003
3.694942e+003,8.709758e-003
3.696871e+003,8.243766e-003
3.698799e+003,7.754795e-003
3.700728e+003,6.854538e-003
3.702656e+003,6.638689e-003
3.704584e+003,6.609723e-003
3.706513e+003,6.266203e-003
3.708441e+003,6.063280e-003
3.710370e+003,5.806552e-003
3.712298e+003,5.589914e-003
3.714227e+003,5.385696e-003
3.716155e+003,5.431289e-003
3.718084e+003,5.508564e-003
3.720012e+003,5.275205e-003
3.721941e+003,4.993435e-003
3.723869e+003,4.810335e-003
3.725798e+003,4.506870e-003
3.727726e+003,4.916855e-003
3.729655e+003,5.122495e-003
3.731583e+003,4.199669e-003
3.733511e+003,3.840032e-003
3.735440e+003,4.081184e-003
3.737368e+003,4.532717e-003
3.739297e+003,4.008744e-003
3.741225e+003,3.487139e-003
3.743154e+003,3.260704e-003
3.745082e+003,3.552610e-003
3.747011e+003,3.911206e-003
3.748939e+003,4.138950e-003
3.750868e+003,3.644253e-003
3.752796e+003,2.742731e-003
3.754725e+003,1.829733e-003
3.756653e+003,1.440536e-003
3.758582e+003,1.301565e-003
3.760510e+003,9.837032e-004
3.762438e+003,1.137223e-003
3.764367e+003,1.128087e-003
3.766295e+003,1.360891e-003
3.768224e+003,1.314991e-003
3.770152e+003,8.403628e-004
3.772081e+003,1.140147e-003
3.774009e+003,1.014057e-003
3.775938e+003,6.444711e-004
3.777866e+003,1.140080e-003
3.779795e+003,1.446088e-003
3.781723e+003,1.411648e-003
3.783652e+003,1.040229e-003
3.785580e+003,9.317007e-004
3.787509e+003,6.642820e-004
3.789437e+003,5.109955e-004
3.791365e+003,5.221418e-004
3.793294e+003,7.554833e-004
3.795222e+003,1.046639e-003
3.797151e+003,3.108754e-004
3.799079e+003,5.402219e-004
3.801008e+003,1.137854e-003
3.802936e+003,7.023466e-004
3.804865e+003,5.247957e-004
3.806793e+003,7.647107e-004
3.808722e+003,1.214864e-004
3.810650e+003,1.852919e-004
3.812579e+003,1.038469e-003
3.814507e+003,8.883369e-004
3.816436e+003,4.537757e-004
3.818364e+003,9.379765e-004
3.820292e+003,1.159249e-003
3.822221e+003,9.563397e-004
3.824149e+003,5.745597e-004
3.826078e+003,8.104190e-004
3.828006e+003,3.506997e-004
3.829935e+003,-7.431329e-005
3.831863e+003,6.189208e-004
3.833792e+003,7.484799e-004
3.835720e+003,4.457821e-004
3.837649e+003,3.761348e-004
3.839577e+003,8.081949e-004
3.841506e+003,5.063181e-004
3.843434e+003,-1.630164e-005
3.845363e+003,8.053069e-004
3.847291e+003,1.323367e-003
3.849219e+003,6.948462e-004
3.851148e+003,2.349267e-005
3.853076e+003,-2.101184e-004
3.855005e+003,-9.823131e-005
3.856933e+003,5.102672e-006
3.858862e+003,6.246215e-005
3.860790e+003,4.632952e-004
3.862719e+003,6.409869e-004
3.864647e+003,-1.185374e-004
3.866576e+003,-4.475758e-004
3.868504e+003,-7.206966e-004
3.870433e+003,-4.479068e-004
3.872361e+003,-3.883560e-004
3.874290e+003,-9.076855e-004
3.876218e+003,-6.368991e-004
3.878146e+003,-4.189766e-004
3.880075e+003,-5.923638e-004
3.882003e+003,-4.301649e-004
3.883932e+003,-5.128440e-004
3.885860e+003,-4.268548e-004
3.887789e+003,6.624000e-005
3.889717e+003,6.640569e-005
3.891646e+003,-2.405859e-004
3.893574e+003,-4.623712e-004
3.895503e+003,-3.306181e-004
3.897431e+003,-5.192643e-004
3.899360e+003,-6.260139e-004
3.901288e+003,1.078647e-004
3.903217e+003,3.250671e-004
3.905145e+003,-5.448125e-004
3.907073e+003,-9.164807e-004
3.909002e+003,-4.663100e-004
3.910930e+003,-4.784570e-004
3.912859e+003,-1.459980e-003
3.914787e+003,-1.916182e-003
3.916716e+003,-1.427881e-003
3.918644e+003,-1.155799e-003
3.920573e+003,-1.135145e-003
3.922501e+003,-4.521436e-004
3.924430e+003,-1.345696e-004
3.926358e+003,-2.217095e-004
3.928287e+003,-8.678737e-004
3.930215e+003,-1.257041e-003
3.932144e+003,-8.931368e-004
3.934072e+003,-4.706128e-004
3.936000e+003,-1.263351e-003
3.937929e+003,-1.653649e-003
3.939857e+003,-6.974745e-004
3.941786e+003,-8.150610e-004
3.943714e+003,-1.331536e-003
3.945643e+003,-1.060418e-003
3.947571e+003,-1.545303e-003
3.949500e+003,-1.484450e-003
3.951428e+003,-9.028250e-004
3.953357e+003,-3.898789e-004
3.955285e+003,-6.037132e-004
3.957214e+003,-1.156725e-003
3.959142e+003,-1.641436e-003
3.961071e+003,-1.365723e-003
3.962999e+003,-1.399875e-003
3.964927e+003,-1.655696e-003
3.966856e+003,-1.262558e-003
3.968784e+003,-1.427286e-003
3.970713e+003,-2.144236e-003
3.972641e+003,-2.017774e-003
3.974570e+003,-1.501488e-003
3.976498e+003,-1.285320e-003
3.978427e+003,-9.389638e-004
3.980355e+003,-6.174775e-004
3.982284e+003,-1.103352e-003
3.984212e+003,-1.287402e-003
3.986141e+003,-1.027628e-003
3.988069e+003,-1.236920e-003
3.989998e+003,-1.452550e-003
3.991926e+003,-1.171661e-003
3.993854e+003,-7.122282e-004
3.995783e+003,-1.046271e-003
3.997711e+003,-1.410146e-003
3.999640e+003,-1.166242e-003
4.001568e+003,0.000000e+000
