3.991927e+002,0.000000e+000
4.011211e+002,0.000000e+000
4.030496e+002,0.000000e+000
4.049781e+002,0.000000e+000
4.069065e+002,0.000000e+000
4.088350e+002,0.000000e+000
4.107635e+002,0.000000e+000
4.126919e+002,0.000000e+000
4.146204e+002,0.000000e+000
4.165489e+002,0.000000e+000
4.184773e+002,0.000000e+000
4.204058e+002,0.000000e+000
4.223343e+002,0.000000e+000
4.242627e+002,0.000000e+000
4.261912e+002,0.000000e+000
4.281197e+002,0.000000e+000
4.300481e+002,0.000000e+000
4.319766e+002,0.000000e+000
4.339051e+002,0.000000e+000
4.358335e+002,0.000000e+000
4.377620e+002,0.000000e+000
4.396905e+002,0.000000e+000
4.416189e+002,0.000000e+000
4.435474e+002,0.000000e+000
4.454759e+002,0.000000e+000
4.474043e+002,0.000000e+000
4.493328e+002,0.000000e+000
4.512613e+002,0.000000e+000
4.531897e+002,0.000000e+000
4.551182e+002,0.000000e+000
4.570467e+002,0.000000e+000
4.589751e+002,0.000000e+000
4.609036e+002,0.000000e+000
4.628321e+002,0.000000e+000
4.647605e+002,0.000000e+000
4.666890e+002,0.000000e+000
4.686175e+002,0.000000e+000
4.705459e+002,0.000000e+000
4.724744e+002,0.000000e+000
4.744029e+002,0.000000e+000
4.763313e+002,0.000000e+000
4.782598e+002,0.000000e+000
4.801883e+002,0.000000e+000
4.821167e+002,0.000000e+000
4.840452e+002,0.000000e+000
4.859737e+002,0.000000e+000
4.879021e+002,0.000000e+000
4.898306e+002,0.000000e+000
4.917591e+002,0.000000e+000
4.936875e+002,0.000000e+000
4.956160e+002,0.000000e+000
4.975445e+002,0.000000e+000
4.994729e+002,0.000000e+000
5.014014e+002,0.000000e+000
5.033299e+002,0.000000e+000
5.052583e+002,0.000000e+000
5.071868e+002,0.000000e+000
5.091153e+002,0.000000e+000
5.110437e+002,0.000000e+000
5.129722e+002,0.000000e+000
5.149006e+002,0.000000e+000
5.168291e+002,0.000000e+000
5.187576e+002,0.000000e+000
5.206860e+002,0.000000e+000
5.226145e+002,0.000000e+000
5.245430e+002,0.000000e+000
5.264714e+002,0.000000e+000
5.283999e+002,0.000000e+000
5.303284e+002,0.000000e+000
5.322568e+002,0.000000e+000
5.341853e+002,0.000000e+000
5.361138e+002,0.000000e+000
5.380422e+002,0.000000e+000
5.399707e+002,0.000000e+000
5.418992e+002,0.000000e+000
5.438276e+002,0.000000e+000
5.457561e+002,0.000000e+000
5.476846e+002,0.000000e+000
5.496130e+002,0.000000e+000
5.515415e+002,0.000000e+000
5.534700e+002,0.000000e+000
5.553984e+002,0.000000e+000
5.573269e+002,0.000000e+000
5.592554e+002,0.000000e+000
5.611838e+002,0.000000e+000
5.631123e+002,0.000000e+000
5.650408e+002,0.000000e+000
5.669692e+002,0.000000e+000
5.688977e+002,0.000000e+000
5.708262e+002,0.000000e+000
5.727546e+002,0.000000e+000
5.746831e+002,0.000000e+000
5.766116e+002,0.000000e+000
5.785400e+002,0.000000e+000
5.804685e+002,0.000000e+000
5.823970e+002,0.000000e+000
5.843254e+002,0.000000e+000
5.862539e+002,0.000000e+000
5.881824e+002,0.000000e+000
5.901108e+002,0.000000e+000
5.920393e+002,0.000000e+000
5.939678e+002,0.000000e+000
5.958962e+002,0.000000e+000
5.978247e+002,0.000000e+000
5.997532e+002,0.000000e+000
6.016816e+002,0.000000e+000
6.036101e+002,0.000000e+000
6.055386e+002,0.000000e+000
6.074670e+002,0.000000e+000
6.093955e+002,0.000000e+000
6.113240e+002,0.000000e+000
6.132524e+002,0.000000e+000
6.151809e+002,0.000000e+000
6.171094e+002,0.000000e+000
6.190378e+002,0.000000e+000
6.209663e+002,0.000000e+000
6.228948e+002,0.000000e+000
6.248232e+002,0.000000e+000
6.267517e+002,0.000000e+000
6.286802e+002,0.000000e+000
6.306086e+002,0.000000e+000
6.325371e+002,0.000000e+000
6.344656e+002,0.000000e+000
6.363940e+002,0.000000e+000
6.383225e+002,0.000000e+000
6.402510e+002,0.000000e+000
6.421794e+002,0.000000e+000
6.441079e+002,0.000000e+000
6.460364e+002,0.000000e+000
6.479648e+002,0.000000e+000
6.498933e+002,3.776305e-001
6.518218e+002,3.767885e-001
6.537502e+002,3.756704e-001
6.556787e+002,3.730424e-001
6.576072e+002,3.693283e-001
6.595356e+002,3.678543e-001
6.614641e+002,3.655868e-001
6.633926e+002,3.624443e-001
6.653210e+002,3.598965e-001
6.672495e+002,3.566002e-001
6.691780e+002,3.534119e-001
6.711064e+002,3.505999e-001
6.730349e+002,3.473813e-001
6.749634e+002,3.464630e-001
6.768918e+002,3.449024e-001
6.788203e+002,3.410775e-001
6.807488e+002,3.375029e-001
6.826772e+002,3.348363e-001
6.846057e+002,3.342740e-001
6.865342e+002,3.330817e-001
6.884626e+002,3.319823e-001
6.903911e+002,3.285424e-001
6.923196e+002,3.271048e-001
6.942480e+002,3.262122e-001
6.961765e+002,3.234305e-001
6.981050e+002,3.197798e-001
7.000334e+002,3.171463e-001
7.019619e+002,3.148986e-001
7.038904e+002,3.128008e-001
7.058188e+002,3.109781e-001
7.077473e+002,3.099779e-001
7.096758e+002,3.076543e-001
7.116042e+002,3.048598e-001
7.135327e+002,3.008879e-001
7.154612e+002,2.986965e-001
7.173896e+002,2.953989e-001
7.193181e+002,2.898409e-001
7.212466e+002,2.885568e-001
7.231750e+002,2.885151e-001
7.251035e+002,2.848888e-001
7.270320e+002,2.814817e-001
7.289604e+002,2.781530e-001
7.308889e+002,2.752030e-001
7.328174e+002,2.729983e-001
7.347458e+002,2.715728e-001
7.366743e+002,2.684346e-001
7.386028e+002,2.651729e-001
7.405313e+002,2.622048e-001
7.424597e+002,2.601633e-001
7.443882e+002,2.589819e-001
7.463167e+002,2.568224e-001
7.482451e+002,2.535991e-001
7.501736e+002,2.515272e-001
7.521021e+002,2.491292e-001
7.540305e+002,2.465005e-001
7.559590e+002,2.420346e-001
7.578875e+002,2.390424e-001
7.598159e+002,2.373949e-001
7.617444e+002,2.352136e-001
7.636729e+002,2.333320e-001
7.656013e+002,2.317875e-001
7.675298e+002,2.283362e-001
7.694583e+002,2.252898e-001
7.713867e+002,2.227996e-001
7.733152e+002,2.204813e-001
7.752437e+002,2.180121e-001
7.771721e+002,2.152000e-001
7.791006e+002,2.128548e-001
7.810291e+002,2.103475e-001
7.829575e+002,2.075117e-001
7.848860e+002,2.047028e-001
7.868145e+002,2.013255e-001
7.887429e+002,1.981398e-001
7.906714e+002,1.957455e-001
7.925999e+002,1.930773e-001
7.945283e+002,1.902249e-001
7.964568e+002,1.863313e-001
7.983853e+002,1.834722e-001
8.003137e+002,1.820078e-001
8.022422e+002,1.805894e-001
8.041707e+002,1.785116e-001
8.060991e+002,1.752934e-001
8.080276e+002,1.725725e-001
8.099561e+002,1.714929e-001
8.118845e+002,1.698150e-001
8.138130e+002,1.677799e-001
8.157415e+002,1.656461e-001
8.176699e+002,1.636828e-001
8.195984e+002,1.617052e-001
8.215269e+002,1.583299e-001
8.234553e+002,1.564299e-001
8.253838e+002,1.560374e-001
8.273123e+002,1.555258e-001
8.292407e+002,1.536846e-001
8.311692e+002,1.519615e-001
8.330977e+002,1.502081e-001
8.350261e+002,1.478143e-001
8.369546e+002,1.458188e-001
8.388831e+002,1.438985e-001
8.408115e+002,1.409954e-001
8.427400e+002,1.381664e-001
8.446685e+002,1.356214e-001
8.465969e+002,1.339909e-001
8.485254e+002,1.325215e-001
8.504539e+002,1.304018e-001
8.523823e+002,1.286499e-001
8.543108e+002,1.264563e-001
8.562393e+002,1.240053e-001
8.581677e+002,1.221830e-001
8.600962e+002,1.208570e-001
8.620247e+002,1.196272e-001
8.639531e+002,1.179008e-001
8.658816e+002,1.153674e-001
8.678101e+002,1.128993e-001
8.697385e+002,1.104936e-001
8.716670e+002,1.083772e-001
8.735955e+002,1.066941e-001
8.755239e+002,1.050888e-001
8.774524e+002,1.033224e-001
8.793809e+002,1.018059e-001
8.813093e+002,1.008662e-001
8.832378e+002,9.946799e-002
8.851663e+002,9.795084e-002
8.870947e+002,9.726075e-002
8.890232e+002,9.644411e-002
8.909517e+002,9.573295e-002
8.928801e+002,9.422705e-002
8.948086e+002,9.251863e-002
8.967371e+002,9.144606e-002
8.986655e+002,8.969402e-002
9.005940e+002,8.792455e-002
9.025225e+002,8.701229e-002
9.044509e+002,8.567368e-002
9.063794e+002,8.423623e-002
9.083079e+002,8.268149e-002
9.102363e+002,8.133253e-002
9.121648e+002,8.038586e-002
9.140933e+002,7.938621e-002
9.160217e+002,7.858126e-002
9.179502e+002,7.806079e-002
9.198787e+002,7.705404e-002
9.218071e+002,7.575145e-002
9.237356e+002,7.481981e-002
9.256641e+002,7.414439e-002
9.275925e+002,7.330499e-002
9.295210e+002,7.249869e-002
9.314495e+002,7.159515e-002
9.333779e+002,7.019027e-002
9.353064e+002,6.911463e-002
9.372349e+002,6.838184e-002
9.391633e+002,6.767963e-002
9.410918e+002,6.721061e-002
9.430203e+002,6.657248e-002
9.449487e+002,6.613209e-002
9.468772e+002,6.564621e-002
9.488057e+002,6.484203e-002
9.507341e+002,6.432404e-002
9.526626e+002,6.411875e-002
9.545911e+002,6.378464e-002
9.565195e+002,6.317975e-002
9.584480e+002,6.281438e-002
9.603765e+002,6.298658e-002
9.623049e+002,6.341285e-002
9.642334e+002,6.273659e-002
9.661619e+002,6.195715e-002
9.680903e+002,6.239569e-002
9.700188e+002,6.232474e-002
9.719473e+002,6.246237e-002
9.738757e+002,6.253698e-002
9.758042e+002,6.248028e-002
9.777327e+002,6.245285e-002
9.796611e+002,6.227192e-002
9.815896e+002,6.233625e-002
9.835181e+002,6.302679e-002
9.854465e+002,6.330118e-002
9.873750e+002,6.361712e-002
9.893035e+002,6.441665e-002
9.912319e+002,6.550513e-002
9.931604e+002,6.598623e-002
9.950889e+002,6.608869e-002
9.970173e+002,6.686801e-002
9.989458e+002,6.815268e-002
1.000874e+003,7.011300e-002
1.002803e+003,7.265832e-002
1.004731e+003,7.586751e-002
1.006660e+003,8.037247e-002
1.008588e+003,8.616728e-002
1.010517e+003,9.162246e-002
1.012445e+003,9.567644e-002
1.014374e+003,9.922708e-002
1.016302e+003,1.003699e-001
1.018230e+003,9.761696e-002
1.020159e+003,9.316504e-002
1.022087e+003,8.827359e-002
1.024016e+003,8.376640e-002
1.025944e+003,7.985459e-002
1.027873e+003,7.688793e-002
1.029801e+003,7.358021e-002
1.031730e+003,7.075360e-002
1.033658e+003,6.845418e-002
1.035587e+003,6.720164e-002
1.037515e+003,6.657793e-002
1.039444e+003,6.647415e-002
1.041372e+003,6.643779e-002
1.043301e+003,6.671955e-002
1.045229e+003,6.733948e-002
1.047157e+003,6.788273e-002
1.049086e+003,6.834864e-002
1.051014e+003,6.845704e-002
1.052943e+003,6.825266e-002
1.054871e+003,6.794453e-002
1.056800e+003,6.700791e-002
1.058728e+003,6.575375e-002
1.060657e+003,6.513665e-002
1.062585e+003,6.475871e-002
1.064514e+003,6.391713e-002
1.066442e+003,6.303059e-002
1.068371e+003,6.214432e-002
1.070299e+003,6.167438e-002
1.072228e+003,6.184940e-002
1.074156e+003,6.172410e-002
1.076084e+003,6.165184e-002
1.078013e+003,6.198382e-002
1.079941e+003,6.226902e-002
1.081870e+003,6.204379e-002
1.083798e+003,6.113417e-002
1.085727e+003,6.007061e-002
1.087655e+003,5.957774e-002
1.089584e+003,5.856651e-002
1.091512e+003,5.700930e-002
1.093441e+003,5.639759e-002
1.095369e+003,5.565538e-002
1.097298e+003,5.492317e-002
1.099226e+003,5.442644e-002
1.101155e+003,5.347112e-002
1.103083e+003,5.246387e-002
1.105011e+003,5.198134e-002
1.106940e+003,5.201540e-002
1.108868e+003,5.207729e-002
1.110797e+003,5.198615e-002
1.112725e+003,5.168173e-002
1.114654e+003,5.150852e-002
1.116582e+003,5.172936e-002
1.118511e+003,5.190172e-002
1.120439e+003,5.173895e-002
1.122368e+003,5.100752e-002
1.124296e+003,5.077763e-002
1.126225e+003,5.082214e-002
1.128153e+003,5.055784e-002
1.130082e+003,4.988493e-002
1.132010e+003,4.936133e-002
1.133938e+003,4.935822e-002
1.135867e+003,4.984750e-002
1.137795e+003,5.005407e-002
1.139724e+003,4.944962e-002
1.141652e+003,4.842878e-002
1.143581e+003,4.738780e-002
1.145509e+003,4.641297e-002
1.147438e+003,4.571133e-002
1.149366e+003,4.529482e-002
1.151295e+003,4.504566e-002
1.153223e+003,4.449611e-002
1.155152e+003,4.404288e-002
1.157080e+003,4.360961e-002
1.159009e+003,4.310732e-002
1.160937e+003,4.293549e-002
1.162865e+003,4.294653e-002
1.164794e+003,4.268340e-002
1.166722e+003,4.242805e-002
1.168651e+003,4.237786e-002
1.170579e+003,4.190056e-002
1.172508e+003,4.132783e-002
1.174436e+003,4.124165e-002
1.176365e+003,4.150450e-002
1.178293e+003,4.209729e-002
1.180222e+003,4.223659e-002
1.182150e+003,4.240581e-002
1.184079e+003,4.291570e-002
1.186007e+003,4.302163e-002
1.187936e+003,4.340407e-002
1.189864e+003,4.436632e-002
1.191792e+003,4.511086e-002
1.193721e+003,4.544085e-002
1.195649e+003,4.536466e-002
1.197578e+003,4.524462e-002
1.199506e+003,4.506223e-002
1.201435e+003,4.481739e-002
1.203363e+003,4.500552e-002
1.205292e+003,4.533270e-002
1.207220e+003,4.575131e-002
1.209149e+003,4.566428e-002
1.211077e+003,4.548367e-002
1.213006e+003,4.560716e-002
1.214934e+003,4.588202e-002
1.216863e+003,4.625110e-002
1.218791e+003,4.654023e-002
1.220719e+003,4.683476e-002
1.222648e+003,4.703806e-002
1.224576e+003,4.741747e-002
1.226505e+003,4.764001e-002
1.228433e+003,4.772720e-002
1.230362e+003,4.796056e-002
1.232290e+003,4.805307e-002
1.234219e+003,4.830123e-002
1.236147e+003,4.859851e-002
1.238076e+003,4.875114e-002
1.240004e+003,4.886807e-002
1.241933e+003,4.892425e-002
1.243861e+003,4.899487e-002
1.245790e+003,4.928476e-002
1.247718e+003,4.921561e-002
1.249646e+003,4.865291e-002
1.251575e+003,4.847205e-002
1.253503e+003,4.850747e-002
1.255432e+003,4.804830e-002
1.257360e+003,4.793103e-002
1.259289e+003,4.790705e-002
1.261217e+003,4.749412e-002
1.263146e+003,4.722903e-002
1.265074e+003,4.748884e-002
1.267003e+003,4.775846e-002
1.268931e+003,4.821710e-002
1.270860e+003,4.885135e-002
1.272788e+003,4.932039e-002
1.274717e+003,4.940072e-002
1.276645e+003,4.944572e-002
1.278573e+003,4.962331e-002
1.280502e+003,4.964853e-002
1.282430e+003,4.938364e-002
1.284359e+003,4.892025e-002
1.286287e+003,4.844145e-002
1.288216e+003,4.814509e-002
1.290144e+003,4.764940e-002
1.292073e+003,4.711453e-002
1.294001e+003,4.659600e-002
1.295930e+003,4.611902e-002
1.297858e+003,4.596397e-002
1.299787e+003,4.558519e-002
1.301715e+003,4.501721e-002
1.303644e+003,4.446322e-002
1.305572e+003,4.393435e-002
1.307500e+003,4.340832e-002
1.309429e+003,4.303426e-002
1.311357e+003,4.277085e-002
1.313286e+003,4.257013e-002
1.315214e+003,4.258606e-002
1.317143e+003,4.242382e-002
1.319071e+003,4.204541e-002
1.321000e+003,4.193534e-002
1.322928e+003,4.200942e-002
1.324857e+003,4.195796e-002
1.326785e+003,4.192304e-002
1.328714e+003,4.206210e-002
1.330642e+003,4.206126e-002
1.332571e+003,4.181792e-002
1.334499e+003,4.169922e-002
1.336427e+003,4.172698e-002
1.338356e+003,4.185495e-002
1.340284e+003,4.211828e-002
1.342213e+003,4.230959e-002
1.344141e+003,4.229918e-002
1.346070e+003,4.244216e-002
1.347998e+003,4.261076e-002
1.349927e+003,4.269433e-002
1.351855e+003,4.311574e-002
1.353784e+003,4.360097e-002
1.355712e+003,4.417286e-002
1.357641e+003,4.490865e-002
1.359569e+003,4.564150e-002
1.361498e+003,4.610218e-002
1.363426e+003,4.618561e-002
1.365354e+003,4.623702e-002
1.367283e+003,4.619578e-002
1.369211e+003,4.611000e-002
1.371140e+003,4.611475e-002
1.373068e+003,4.611913e-002
1.374997e+003,4.628593e-002
1.376925e+003,4.626949e-002
1.378854e+003,4.610657e-002
1.380782e+003,4.606372e-002
1.382711e+003,4.597977e-002
1.384639e+003,4.611921e-002
1.386568e+003,4.610067e-002
1.388496e+003,4.615664e-002
1.390425e+003,4.611678e-002
1.392353e+003,4.583691e-002
1.394281e+003,4.574527e-002
1.396210e+003,4.575064e-002
1.398138e+003,4.562939e-002
1.400067e+003,4.560919e-002
1.401995e+003,4.566119e-002
1.403924e+003,4.576692e-002
1.405852e+003,4.570208e-002
1.407781e+003,4.549791e-002
1.409709e+003,4.537411e-002
1.411638e+003,4.540038e-002
1.413566e+003,4.536989e-002
1.415495e+003,4.510700e-002
1.417423e+003,4.489454e-002
1.419352e+003,4.474062e-002
1.421280e+003,4.467216e-002
1.423208e+003,4.462644e-002
1.425137e+003,4.450778e-002
1.427065e+003,4.421593e-002
1.428994e+003,4.430614e-002
1.430922e+003,4.423731e-002
1.432851e+003,4.389285e-002
1.434779e+003,4.388786e-002
1.436708e+003,4.399719e-002
1.438636e+003,4.414564e-002
1.440565e+003,4.405560e-002
1.442493e+003,4.417172e-002
1.444422e+003,4.447886e-002
1.446350e+003,4.465472e-002
1.448279e+003,4.482320e-002
1.450207e+003,4.475538e-002
1.452135e+003,4.457926e-002
1.454064e+003,4.409697e-002
1.455992e+003,4.372180e-002
1.457921e+003,4.367468e-002
1.459849e+003,4.342458e-002
1.461778e+003,4.311676e-002
1.463706e+003,4.301717e-002
1.465635e+003,4.300982e-002
1.467563e+003,4.255419e-002
1.469492e+003,4.199173e-002
1.471420e+003,4.141060e-002
1.473349e+003,4.090556e-002
1.475277e+003,4.036362e-002
1.477206e+003,3.975660e-002
1.479134e+003,3.936226e-002
1.481063e+003,3.911256e-002
1.482991e+003,3.851232e-002
1.484919e+003,3.794193e-002
1.486848e+003,3.753288e-002
1.488776e+003,3.733712e-002
1.490705e+003,3.731582e-002
1.492633e+003,3.703031e-002
1.494562e+003,3.673983e-002
1.496490e+003,3.685195e-002
1.498419e+003,3.721697e-002
1.500347e+003,3.781286e-002
1.502276e+003,3.836248e-002
1.504204e+003,3.898768e-002
1.506133e+003,3.941636e-002
1.508061e+003,3.954213e-002
1.509990e+003,4.003315e-002
1.511918e+003,4.080778e-002
1.513846e+003,4.138708e-002
1.515775e+003,4.142572e-002
1.517703e+003,4.092777e-002
1.519632e+003,4.045744e-002
1.521560e+003,3.980776e-002
1.523489e+003,3.869248e-002
1.525417e+003,3.800232e-002
1.527346e+003,3.771000e-002
1.529274e+003,3.732004e-002
1.531203e+003,3.711905e-002
1.533131e+003,3.712706e-002
1.535060e+003,3.718304e-002
1.536988e+003,3.729372e-002
1.538917e+003,3.742961e-002
1.540845e+003,3.785754e-002
1.542773e+003,3.823061e-002
1.544702e+003,3.867926e-002
1.546630e+003,3.900888e-002
1.548559e+003,3.907972e-002
1.550487e+003,3.934909e-002
1.552416e+003,3.961835e-002
1.554344e+003,4.031450e-002
1.556273e+003,4.146859e-002
1.558201e+003,4.236836e-002
1.560130e+003,4.293724e-002
1.562058e+003,4.359090e-002
1.563987e+003,4.471792e-002
1.565915e+003,4.567389e-002
1.567844e+003,4.637374e-002
1.569772e+003,4.712509e-002
1.571700e+003,4.799978e-002
1.573629e+003,4.902120e-002
1.575557e+003,5.034950e-002
1.577486e+003,5.174197e-002
1.579414e+003,5.296262e-002
1.581343e+003,5.413307e-002
1.583271e+003,5.550603e-002
1.585200e+003,5.678263e-002
1.587128e+003,5.821277e-002
1.589057e+003,5.997420e-002
1.590985e+003,6.171513e-002
1.592914e+003,6.333464e-002
1.594842e+003,6.500398e-002
1.596771e+003,6.732269e-002
1.598699e+003,6.988823e-002
1.600627e+003,7.243139e-002
1.602556e+003,7.470776e-002
1.604484e+003,7.706163e-002
1.606413e+003,7.999459e-002
1.608341e+003,8.281422e-002
1.610270e+003,8.549569e-002
1.612198e+003,8.793048e-002
1.614127e+003,9.035876e-002
1.616055e+003,9.309031e-002
1.617984e+003,9.613065e-002
1.619912e+003,9.864564e-002
1.621841e+003,1.009706e-001
1.623769e+003,1.031370e-001
1.625698e+003,1.053175e-001
1.627626e+003,1.074626e-001
1.629554e+003,1.093687e-001
1.631483e+003,1.106990e-001
1.633411e+003,1.118551e-001
1.635340e+003,1.128779e-001
1.637268e+003,1.132815e-001
1.639197e+003,1.131985e-001
1.641125e+003,1.130063e-001
1.643054e+003,1.125694e-001
1.644982e+003,1.117049e-001
1.646911e+003,1.104169e-001
1.648839e+003,1.091315e-001
1.650768e+003,1.077314e-001
1.652696e+003,1.060208e-001
1.654625e+003,1.038386e-001
1.656553e+003,1.016953e-001
1.658481e+003,9.957003e-002
1.660410e+003,9.739520e-002
1.662338e+003,9.524165e-002
1.664267e+003,9.281270e-002
1.666195e+003,9.022435e-002
1.668124e+003,8.765404e-002
1.670052e+003,8.524261e-002
1.671981e+003,8.296693e-002
1.673909e+003,8.062332e-002
1.675838e+003,7.820100e-002
1.677766e+003,7.594336e-002
1.679695e+003,7.375103e-002
1.681623e+003,7.136703e-002
1.683552e+003,6.909303e-002
1.685480e+003,6.714587e-002
1.687408e+003,6.536730e-002
1.689337e+003,6.372619e-002
1.691265e+003,6.192470e-002
1.693194e+003,6.019688e-002
1.695122e+003,5.888555e-002
1.697051e+003,5.769687e-002
1.698979e+003,5.627114e-002
1.700908e+003,5.470514e-002
1.702836e+003,5.359387e-002
1.704765e+003,5.271242e-002
1.706693e+003,5.136383e-002
1.708622e+003,4.998484e-002
1.710550e+003,4.893838e-002
1.712479e+003,4.783994e-002
1.714407e+003,4.703329e-002
1.716335e+003,4.633905e-002
1.718264e+003,4.527158e-002
1.720192e+003,4.422128e-002
1.722121e+003,4.285927e-002
1.724049e+003,4.106647e-002
1.725978e+003,3.919770e-002
1.727906e+003,3.734482e-002
1.729835e+003,3.545852e-002
1.731763e+003,3.361264e-002
1.733692e+003,3.192148e-002
1.735620e+003,3.050781e-002
1.737549e+003,2.914792e-002
1.739477e+003,2.754564e-002
1.741406e+003,2.609799e-002
1.743334e+003,2.504288e-002
1.745262e+003,2.417269e-002
1.747191e+003,2.303824e-002
1.749119e+003,2.196853e-002
1.751048e+003,2.111300e-002
1.752976e+003,2.036938e-002
1.754905e+003,1.974662e-002
1.756833e+003,1.915522e-002
1.758762e+003,1.854000e-002
1.760690e+003,1.805232e-002
1.762619e+003,1.744743e-002
1.764547e+003,1.702369e-002
1.766476e+003,1.666488e-002
1.768404e+003,1.620971e-002
1.770333e+003,1.566202e-002
1.772261e+003,1.527643e-002
1.774189e+003,1.496612e-002
1.776118e+003,1.449806e-002
1.778046e+003,1.411936e-002
1.779975e+003,1.392354e-002
1.781903e+003,1.352770e-002
1.783832e+003,1.311388e-002
1.785760e+003,1.269735e-002
1.787689e+003,1.236508e-002
1.789617e+003,1.224499e-002
1.791546e+003,1.206692e-002
1.793474e+003,1.183893e-002
1.795403e+003,1.146084e-002
1.797331e+003,1.120481e-002
1.799260e+003,1.106421e-002
1.801188e+003,1.092036e-002
1.803116e+003,1.064373e-002
1.805045e+003,1.032849e-002
1.806973e+003,1.020439e-002
1.808902e+003,1.011318e-002
1.810830e+003,1.001243e-002
1.812759e+003,1.006072e-002
1.814687e+003,1.000982e-002
1.816616e+003,9.821513e-003
1.818544e+003,9.766306e-003
1.820473e+003,9.738858e-003
1.822401e+003,9.538776e-003
1.824330e+003,9.509717e-003
1.826258e+003,9.417370e-003
1.828187e+003,9.269324e-003
1.830115e+003,9.237507e-003
1.832043e+003,9.308286e-003
1.833972e+003,9.178889e-003
1.835900e+003,9.011168e-003
1.837829e+003,8.938002e-003
1.839757e+003,8.953460e-003
1.841686e+003,9.196419e-003
1.843614e+003,9.120990e-003
1.845543e+003,8.875874e-003
1.847471e+003,8.755464e-003
1.849400e+003,8.796747e-003
1.851328e+003,8.881082e-003
1.853257e+003,8.895015e-003
1.855185e+003,8.847975e-003
1.857114e+003,8.816662e-003
1.859042e+003,8.775412e-003
1.860970e+003,8.744814e-003
1.862899e+003,8.708236e-003
1.864827e+003,8.642625e-003
1.866756e+003,8.557626e-003
1.868684e+003,8.587129e-003
1.870613e+003,8.675683e-003
1.872541e+003,8.663750e-003
1.874470e+003,8.604467e-003
1.876398e+003,8.544345e-003
1.878327e+003,8.645768e-003
1.880255e+003,8.751475e-003
1.882183e+003,8.695965e-003
1.884112e+003,8.673520e-003
1.886040e+003,8.427305e-003
1.887969e+003,8.313166e-003
1.889897e+003,8.321137e-003
1.891826e+003,8.516468e-003
1.893754e+003,8.493458e-003
1.895683e+003,8.542454e-003
1.897611e+003,8.871444e-003
1.899540e+003,9.087593e-003
1.901468e+003,8.940607e-003
1.903397e+003,8.642220e-003
1.905325e+003,8.559383e-003
1.907254e+003,8.479233e-003
1.909182e+003,8.271895e-003
1.911110e+003,8.365046e-003
1.913039e+003,8.436832e-003
1.914967e+003,8.526606e-003
1.916896e+003,8.500283e-003
1.918824e+003,8.372782e-003
1.920753e+003,8.424839e-003
1.922681e+003,8.506669e-003
1.924610e+003,8.681463e-003
1.926538e+003,8.571246e-003
1.928467e+003,8.437170e-003
1.930395e+003,8.459535e-003
1.932324e+003,8.578612e-003
1.934252e+003,8.737275e-003
1.936181e+003,8.869584e-003
1.938109e+003,8.984106e-003
1.940037e+003,8.932963e-003
1.941966e+003,8.966990e-003
1.943894e+003,9.009815e-003
1.945823e+003,9.010592e-003
1.947751e+003,9.092974e-003
1.949680e+003,9.273657e-003
1.951608e+003,9.451706e-003
1.953537e+003,9.361064e-003
1.955465e+003,9.333473e-003
1.957394e+003,9.411986e-003
1.959322e+003,9.422381e-003
1.961251e+003,9.637552e-003
1.963179e+003,9.704330e-003
1.965108e+003,9.756139e-003
1.967036e+003,1.002888e-002
1.968964e+003,1.017037e-002
1.970893e+003,1.013458e-002
1.972821e+003,1.011281e-002
1.974750e+003,1.015887e-002
1.976678e+003,1.009887e-002
1.978607e+003,1.014150e-002
1.980535e+003,1.020954e-002
1.982464e+003,1.013007e-002
1.984392e+003,1.018014e-002
1.986321e+003,1.047222e-002
1.988249e+003,1.058299e-002
1.990178e+003,1.048600e-002
1.992106e+003,1.051716e-002
1.994035e+003,1.067901e-002
1.995963e+003,1.078148e-002
1.997891e+003,1.090826e-002
1.999820e+003,1.102074e-002
2.001748e+003,1.103076e-002
2.003677e+003,1.129155e-002
2.005605e+003,1.158972e-002
2.007534e+003,1.159524e-002
2.009462e+003,1.155256e-002
2.011391e+003,1.146121e-002
2.013319e+003,1.160167e-002
2.015248e+003,1.174949e-002
2.017176e+003,1.184792e-002
2.019105e+003,1.202505e-002
2.021033e+003,1.205431e-002
2.022962e+003,1.198431e-002
2.024890e+003,1.212323e-002
2.026818e+003,1.233307e-002
2.028747e+003,1.247012e-002
2.030675e+003,1.253894e-002
2.032604e+003,1.253649e-002
2.034532e+003,1.246208e-002
2.036461e+003,1.240408e-002
2.038389e+003,1.236238e-002
2.040318e+003,1.263243e-002
2.042246e+003,1.282637e-002
2.044175e+003,1.292531e-002
2.046103e+003,1.298311e-002
2.048032e+003,1.302640e-002
2.049960e+003,1.298434e-002
2.051889e+003,1.301705e-002
2.053817e+003,1.302585e-002
2.055746e+003,1.309554e-002
2.057674e+003,1.325002e-002
2.059603e+003,1.317563e-002
2.061531e+003,1.332734e-002
2.063459e+003,1.358537e-002
2.065388e+003,1.356712e-002
2.067316e+003,1.360705e-002
2.069245e+003,1.369307e-002
2.071173e+003,1.371322e-002
2.073102e+003,1.372583e-002
2.075030e+003,1.358742e-002
2.076959e+003,1.344236e-002
2.078887e+003,1.378117e-002
2.080816e+003,1.392885e-002
2.082744e+003,1.384052e-002
2.084673e+003,1.382478e-002
2.086601e+003,1.390982e-002
2.088530e+003,1.401572e-002
2.090458e+003,1.408742e-002
2.092386e+003,1.407863e-002
2.094315e+003,1.407260e-002
2.096243e+003,1.405577e-002
2.098172e+003,1.403102e-002
2.100100e+003,1.410348e-002
2.102029e+003,1.428715e-002
2.103957e+003,1.437458e-002
2.105886e+003,1.438386e-002
2.107814e+003,1.440869e-002
2.109743e+003,1.456898e-002
2.111671e+003,1.450974e-002
2.113600e+003,1.446000e-002
2.115528e+003,1.458927e-002
2.117457e+003,1.461596e-002
2.119385e+003,1.444863e-002
2.121313e+003,1.447473e-002
2.123242e+003,1.448237e-002
2.125170e+003,1.450344e-002
2.127099e+003,1.448398e-002
2.129027e+003,1.439550e-002
2.130956e+003,1.436403e-002
2.132884e+003,1.429588e-002
2.134813e+003,1.423223e-002
2.136741e+003,1.406815e-002
2.138670e+003,1.423003e-002
2.140598e+003,1.437752e-002
2.142527e+003,1.429461e-002
2.144455e+003,1.420634e-002
2.146384e+003,1.398554e-002
2.148312e+003,1.399235e-002
2.150240e+003,1.384140e-002
2.152169e+003,1.368794e-002
2.154097e+003,1.387907e-002
2.156026e+003,1.380262e-002
2.157954e+003,1.382878e-002
2.159883e+003,1.379776e-002
2.161811e+003,1.369427e-002
2.163740e+003,1.367187e-002
2.165668e+003,1.367037e-002
2.167597e+003,1.359501e-002
2.169525e+003,1.347824e-002
2.171454e+003,1.330332e-002
2.173382e+003,1.318413e-002
2.175311e+003,1.337275e-002
2.177239e+003,1.339489e-002
2.179167e+003,1.311911e-002
2.181096e+003,1.316596e-002
2.183024e+003,1.326758e-002
2.184953e+003,1.309322e-002
2.186881e+003,1.292811e-002
2.188810e+003,1.267695e-002
2.190738e+003,1.269329e-002
2.192667e+003,1.295631e-002
2.194595e+003,1.288702e-002
2.196524e+003,1.262820e-002
2.198452e+003,1.249836e-002
2.200381e+003,1.243531e-002
2.202309e+003,1.248424e-002
2.204238e+003,1.227069e-002
2.206166e+003,1.196902e-002
2.208094e+003,1.192529e-002
2.210023e+003,1.205125e-002
2.211951e+003,1.195325e-002
2.213880e+003,1.182194e-002
2.215808e+003,1.192668e-002
2.217737e+003,1.184482e-002
2.219665e+003,1.146682e-002
2.221594e+003,1.137392e-002
2.223522e+003,1.154076e-002
2.225451e+003,1.147887e-002
2.227379e+003,1.118587e-002
2.229308e+003,1.104405e-002
2.231236e+003,1.110618e-002
2.233165e+003,1.110442e-002
2.235093e+003,1.100857e-002
2.237021e+003,1.106292e-002
2.238950e+003,1.088166e-002
2.240878e+003,1.057898e-002
2.242807e+003,1.048973e-002
2.244735e+003,1.050039e-002
2.246664e+003,1.050694e-002
2.248592e+003,1.048389e-002
2.250521e+003,1.022613e-002
2.252449e+003,9.961339e-003
2.254378e+003,9.707108e-003
2.256306e+003,9.666620e-003
2.258235e+003,9.773829e-003
2.260163e+003,9.672447e-003
2.262092e+003,9.643109e-003
2.264020e+003,9.509853e-003
2.265948e+003,9.560725e-003
2.267877e+003,9.582302e-003
2.269805e+003,9.328564e-003
2.271734e+003,9.223055e-003
2.273662e+003,9.375487e-003
2.275591e+003,9.183390e-003
2.277519e+003,9.017798e-003
2.279448e+003,8.985763e-003
2.281376e+003,8.952648e-003
2.283305e+003,8.866237e-003
2.285233e+003,8.750427e-003
2.287162e+003,8.697655e-003
2.289090e+003,8.772606e-003
2.291019e+003,8.675007e-003
2.292947e+003,8.588379e-003
2.294875e+003,8.580471e-003
2.296804e+003,8.544548e-003
2.298732e+003,8.276320e-003
2.300661e+003,8.233297e-003
2.302589e+003,8.104187e-003
2.304518e+003,7.847127e-003
2.306446e+003,7.765623e-003
2.308375e+003,7.573597e-003
2.310303e+003,7.612238e-003
2.312232e+003,7.764308e-003
2.314160e+003,7.575518e-003
2.316089e+003,7.467401e-003
2.318017e+003,7.531520e-003
2.319946e+003,7.666396e-003
2.321874e+003,7.780668e-003
2.323802e+003,7.811872e-003
2.325731e+003,7.761002e-003
2.327659e+003,7.519012e-003
2.329588e+003,7.207956e-003
2.331516e+003,7.018634e-003
2.333445e+003,7.030655e-003
2.335373e+003,6.967756e-003
2.337302e+003,6.777394e-003
2.339230e+003,6.773355e-003
2.341159e+003,6.860665e-003
2.343087e+003,6.821652e-003
2.345016e+003,6.683270e-003
2.346944e+003,6.455265e-003
2.348873e+003,6.349713e-003
2.350801e+003,6.346384e-003
2.352729e+003,6.265565e-003
2.354658e+003,6.144062e-003
2.356586e+003,6.169031e-003
2.358515e+003,6.196994e-003
2.360443e+003,6.127024e-003
2.362372e+003,6.132535e-003
2.364300e+003,6.289096e-003
2.366229e+003,6.348300e-003
2.368157e+003,6.176459e-003
2.370086e+003,6.023029e-003
2.372014e+003,6.041273e-003
2.373943e+003,6.025045e-003
2.375871e+003,6.165940e-003
2.377800e+003,6.430951e-003
2.379728e+003,6.098057e-003
2.381656e+003,5.836372e-003
2.383585e+003,5.899411e-003
2.385513e+003,6.028573e-003
2.387442e+003,6.296290e-003
2.389370e+003,6.258136e-003
2.391299e+003,5.865925e-003
2.393227e+003,5.779622e-003
2.395156e+003,5.794732e-003
2.397084e+003,5.816928e-003
2.399013e+003,5.815887e-003
2.400941e+003,5.733891e-003
2.402870e+003,5.846312e-003
2.404798e+003,5.940255e-003
2.406727e+003,5.869385e-003
2.408655e+003,5.740001e-003
2.410583e+003,5.806015e-003
2.412512e+003,5.798493e-003
2.414440e+003,5.562930e-003
2.416369e+003,5.397874e-003
2.418297e+003,5.400726e-003
2.420226e+003,5.462694e-003
2.422154e+003,5.343596e-003
2.424083e+003,5.276513e-003
2.426011e+003,5.214202e-003
2.427940e+003,5.263231e-003
2.429868e+003,5.388984e-003
2.431797e+003,5.490243e-003
2.433725e+003,5.278995e-003
2.435654e+003,5.153308e-003
2.437582e+003,5.125546e-003
2.439510e+003,5.343596e-003
2.441439e+003,5.524336e-003
2.443367e+003,5.351043e-003
2.445296e+003,5.145898e-003
2.447224e+003,5.103318e-003
2.449153e+003,5.183351e-003
2.451081e+003,5.168262e-003
2.453010e+003,5.109654e-003
2.454938e+003,4.960790e-003
2.456867e+003,4.751776e-003
2.458795e+003,4.602867e-003
2.460724e+003,4.566903e-003
2.462652e+003,4.707091e-003
2.464581e+003,5.114181e-003
2.466509e+003,5.119746e-003
2.468438e+003,5.146535e-003
2.470366e+003,4.949864e-003
2.472294e+003,4.864413e-003
2.474223e+003,5.002250e-003
2.476151e+003,5.065670e-003
2.478080e+003,4.777872e-003
2.480008e+003,4.604173e-003
2.481937e+003,4.764237e-003
2.483865e+003,4.742798e-003
2.485794e+003,4.806114e-003
2.487722e+003,4.860660e-003
2.489651e+003,4.880765e-003
2.491579e+003,4.825311e-003
2.493508e+003,4.565229e-003
2.495436e+003,4.524849e-003
2.497365e+003,4.592117e-003
2.499293e+003,4.752647e-003
2.501221e+003,4.746081e-003
2.503150e+003,4.677215e-003
2.505078e+003,4.839384e-003
2.507007e+003,4.933342e-003
2.508935e+003,4.640006e-003
2.510864e+003,4.442493e-003
2.512792e+003,4.438979e-003
2.514721e+003,4.522070e-003
2.516649e+003,4.952244e-003
2.518578e+003,5.084376e-003
2.520506e+003,4.887600e-003
2.522435e+003,4.779179e-003
2.524363e+003,4.727289e-003
2.526292e+003,4.764372e-003
2.528220e+003,4.645933e-003
2.530148e+003,4.631499e-003
2.532077e+003,4.784371e-003
2.534005e+003,4.595968e-003
2.535934e+003,4.393523e-003
2.537862e+003,4.453875e-003
2.539791e+003,4.450661e-003
2.541719e+003,4.527327e-003
2.543648e+003,4.673564e-003
2.545576e+003,4.657923e-003
2.547505e+003,4.647273e-003
2.549433e+003,4.566635e-003
2.551362e+003,4.636456e-003
2.553290e+003,4.686626e-003
2.555219e+003,4.648278e-003
2.557147e+003,4.795762e-003
2.559075e+003,4.938370e-003
2.561004e+003,4.824809e-003
2.562932e+003,4.505397e-003
2.564861e+003,4.622591e-003
2.566789e+003,4.700962e-003
2.568718e+003,4.378360e-003
2.570646e+003,4.306574e-003
2.572575e+003,4.481125e-003
2.574503e+003,4.516479e-003
2.576432e+003,4.501547e-003
2.578360e+003,4.437639e-003
2.580289e+003,4.458260e-003
2.582217e+003,4.418057e-003
2.584146e+003,4.328761e-003
2.586074e+003,4.209672e-003
2.588002e+003,4.285023e-003
2.589931e+003,4.355300e-003
2.591859e+003,4.508109e-003
2.593788e+003,4.594863e-003
2.595716e+003,4.467299e-003
2.597645e+003,4.517617e-003
2.599573e+003,4.738109e-003
2.601502e+003,4.665258e-003
2.603430e+003,4.367416e-003
2.605359e+003,4.439581e-003
2.607287e+003,4.637829e-003
2.609216e+003,4.562684e-003
2.611144e+003,4.611440e-003
2.613073e+003,4.696909e-003
2.615001e+003,4.618840e-003
2.616929e+003,4.412434e-003
2.618858e+003,4.462980e-003
2.620786e+003,4.594227e-003
2.622715e+003,4.848966e-003
2.624643e+003,4.829098e-003
2.626572e+003,4.719485e-003
2.628500e+003,4.591783e-003
2.630429e+003,4.334250e-003
2.632357e+003,4.264880e-003
2.634286e+003,4.269798e-003
2.636214e+003,4.464888e-003
2.638143e+003,4.503053e-003
2.640071e+003,4.479953e-003
2.642000e+003,4.504961e-003
2.643928e+003,4.651593e-003
2.645856e+003,4.663181e-003
2.647785e+003,4.428434e-003
2.649713e+003,4.541690e-003
2.651642e+003,4.647373e-003
2.653570e+003,4.686090e-003
2.655499e+003,4.876542e-003
2.657427e+003,4.849301e-003
2.659356e+003,4.654674e-003
2.661284e+003,4.732179e-003
2.663213e+003,4.757538e-003
2.665141e+003,4.608057e-003
2.667070e+003,4.728328e-003
2.668998e+003,4.863206e-003
2.670927e+003,5.017601e-003
2.672855e+003,5.026652e-003
2.674783e+003,4.882339e-003
2.676712e+003,4.709469e-003
2.678640e+003,4.689406e-003
2.680569e+003,4.702971e-003
2.682497e+003,4.883814e-003
2.684426e+003,4.949898e-003
2.686354e+003,4.779112e-003
2.688283e+003,4.935957e-003
2.690211e+003,5.249984e-003
2.692140e+003,5.143919e-003
2.694068e+003,5.101038e-003
2.695997e+003,5.088466e-003
2.697925e+003,4.793953e-003
2.699854e+003,4.625103e-003
2.701782e+003,4.723805e-003
2.703710e+003,4.854193e-003
2.705639e+003,4.912297e-003
2.707567e+003,4.816734e-003
2.709496e+003,5.125244e-003
2.711424e+003,5.543465e-003
2.713353e+003,5.677154e-003
2.715281e+003,5.495343e-003
2.717210e+003,5.262360e-003
2.719138e+003,5.441858e-003
2.721067e+003,5.782274e-003
2.722995e+003,5.929942e-003
2.724924e+003,5.727612e-003
2.726852e+003,5.495410e-003
2.728781e+003,5.900183e-003
2.730709e+003,6.210976e-003
2.732637e+003,5.994842e-003
2.734566e+003,5.942136e-003
2.736494e+003,5.982244e-003
2.738423e+003,6.046984e-003
2.740351e+003,6.010027e-003
2.742280e+003,6.298139e-003
2.744208e+003,6.464446e-003
2.746137e+003,6.480690e-003
2.748065e+003,6.574736e-003
2.749994e+003,6.775812e-003
2.751922e+003,6.910823e-003
2.753851e+003,6.857130e-003
2.755779e+003,6.993379e-003
2.757708e+003,7.075512e-003
2.759636e+003,7.137957e-003
2.761564e+003,7.265803e-003
2.763493e+003,7.376397e-003
2.765421e+003,7.492987e-003
2.767350e+003,7.348763e-003
2.769278e+003,7.423413e-003
2.771207e+003,7.754559e-003
2.773135e+003,7.830697e-003
2.775064e+003,7.656346e-003
2.776992e+003,7.635303e-003
2.778921e+003,8.000157e-003
2.780849e+003,8.270140e-003
2.782778e+003,8.542284e-003
2.784706e+003,8.462170e-003
2.786635e+003,8.405515e-003
2.788563e+003,8.507513e-003
2.790491e+003,8.686365e-003
2.792420e+003,8.966111e-003
2.794348e+003,9.174083e-003
2.796277e+003,9.489499e-003
2.798205e+003,9.740857e-003
2.800134e+003,9.733166e-003
2.802062e+003,9.812667e-003
2.803991e+003,1.041245e-002
2.805919e+003,1.057368e-002
2.807848e+003,1.065100e-002
2.809776e+003,1.070105e-002
2.811705e+003,1.088668e-002
2.813633e+003,1.123347e-002
2.815562e+003,1.101523e-002
2.817490e+003,1.090921e-002
2.819418e+003,1.126880e-002
2.821347e+003,1.178626e-002
2.823275e+003,1.234691e-002
2.825204e+003,1.257025e-002
2.827132e+003,1.261210e-002
2.829061e+003,1.272676e-002
2.830989e+003,1.310801e-002
2.832918e+003,1.383607e-002
2.834846e+003,1.408920e-002
2.836775e+003,1.438095e-002
2.838703e+003,1.492438e-002
2.840632e+003,1.535984e-002
2.842560e+003,1.582618e-002
2.844489e+003,1.594176e-002
2.846417e+003,1.583999e-002
2.848345e+003,1.572327e-002
2.850274e+003,1.566834e-002
2.852202e+003,1.532297e-002
2.854131e+003,1.525890e-002
2.856059e+003,1.545267e-002
2.857988e+003,1.564385e-002
2.859916e+003,1.537889e-002
2.861845e+003,1.582257e-002
2.863773e+003,1.604193e-002
2.865702e+003,1.605407e-002
2.867630e+003,1.618567e-002
2.869558e+003,1.661906e-002
2.871487e+003,1.694320e-002
2.873415e+003,1.708806e-002
2.875344e+003,1.768980e-002
2.877272e+003,1.807322e-002
2.879201e+003,1.800407e-002
2.881129e+003,1.814753e-002
2.883058e+003,1.821729e-002
2.884986e+003,1.865326e-002
2.886915e+003,1.917447e-002
2.888843e+003,1.932579e-002
2.890771e+003,1.968018e-002
2.892700e+003,2.015810e-002
2.894628e+003,2.030893e-002
2.896557e+003,2.055221e-002
2.898485e+003,2.097767e-002
2.900414e+003,2.119812e-002
2.902342e+003,2.160872e-002
2.904271e+003,2.196473e-002
2.906199e+003,2.239897e-002
2.908128e+003,2.289774e-002
2.910056e+003,2.355967e-002
2.911985e+003,2.387661e-002
2.913913e+003,2.395584e-002
2.915842e+003,2.424819e-002
2.917770e+003,2.466483e-002
2.919698e+003,2.486275e-002
2.921627e+003,2.527359e-002
2.923555e+003,2.563684e-002
2.925484e+003,2.575345e-002
2.927412e+003,2.589220e-002
2.929341e+003,2.657799e-002
2.931269e+003,2.716065e-002
2.933198e+003,2.740516e-002
2.935126e+003,2.732890e-002
2.937055e+003,2.797504e-002
2.938983e+003,2.881950e-002
2.940912e+003,2.976626e-002
2.942840e+003,3.059708e-002
2.944769e+003,3.119837e-002
2.946697e+003,3.172827e-002
2.948625e+003,3.205466e-002
2.950554e+003,3.254325e-002
2.952482e+003,3.292382e-002
2.954411e+003,3.279345e-002
2.956339e+003,3.313883e-002
2.958268e+003,3.330755e-002
2.960196e+003,3.335259e-002
2.962125e+003,3.351571e-002
2.964053e+003,3.413145e-002
2.965982e+003,3.479100e-002
2.967910e+003,3.503362e-002
2.969839e+003,3.515925e-002
2.971767e+003,3.536617e-002
2.973696e+003,3.578391e-002
2.975624e+003,3.638818e-002
2.977552e+003,3.687547e-002
2.979481e+003,3.686995e-002
2.981409e+003,3.721192e-002
2.983338e+003,3.769207e-002
2.985266e+003,3.755997e-002
2.987195e+003,3.792110e-002
2.989123e+003,3.871487e-002
2.991052e+003,3.909194e-002
2.992980e+003,3.943805e-002
2.994909e+003,4.023689e-002
2.996837e+003,4.070850e-002
2.998766e+003,4.125812e-002
3.000694e+003,4.187619e-002
3.002623e+003,4.216268e-002
3.004551e+003,4.251783e-002
3.006479e+003,4.346512e-002
3.008408e+003,4.376673e-002
3.010336e+003,4.411087e-002
3.012265e+003,4.455991e-002
3.014193e+003,4.494882e-002
3.016122e+003,4.571560e-002
3.018050e+003,4.673457e-002
3.019979e+003,4.715542e-002
3.021907e+003,4.782762e-002
3.023836e+003,4.887026e-002
3.025764e+003,5.004637e-002
3.027693e+003,5.067154e-002
3.029621e+003,5.115019e-002
3.031550e+003,5.258906e-002
3.033478e+003,5.368467e-002
3.035406e+003,5.457693e-002
3.037335e+003,5.552701e-002
3.039263e+003,5.648185e-002
3.041192e+003,5.734853e-002
3.043120e+003,5.773282e-002
3.045049e+003,5.825479e-002
3.046977e+003,5.967383e-002
3.048906e+003,6.093782e-002
3.050834e+003,6.190999e-002
3.052763e+003,6.300377e-002
3.054691e+003,6.397422e-002
3.056620e+003,6.455030e-002
3.058548e+003,6.540235e-002
3.060477e+003,6.715423e-002
3.062405e+003,6.853367e-002
3.064333e+003,6.945924e-002
3.066262e+003,7.043800e-002
3.068190e+003,7.151998e-002
3.070119e+003,7.290083e-002
3.072047e+003,7.426133e-002
3.073976e+003,7.489347e-002
3.075904e+003,7.603114e-002
3.077833e+003,7.757302e-002
3.079761e+003,7.932062e-002
3.081690e+003,8.062775e-002
3.083618e+003,8.151485e-002
3.085547e+003,8.267432e-002
3.087475e+003,8.393435e-002
3.089404e+003,8.539501e-002
3.091332e+003,8.683796e-002
3.093260e+003,8.826579e-002
3.095189e+003,9.002349e-002
3.097117e+003,9.178095e-002
3.099046e+003,9.345642e-002
3.100974e+003,9.471988e-002
3.102903e+003,9.599701e-002
3.104831e+003,9.772372e-002
3.106760e+003,9.942786e-002
3.108688e+003,1.010895e-001
3.110617e+003,1.023466e-001
3.112545e+003,1.035631e-001
3.114474e+003,1.054658e-001
3.116402e+003,1.076823e-001
3.118331e+003,1.093046e-001
3.120259e+003,1.105053e-001
3.122188e+003,1.119696e-001
3.124116e+003,1.131653e-001
3.126044e+003,1.151020e-001
3.127973e+003,1.171916e-001
3.129901e+003,1.188848e-001
3.131830e+003,1.209431e-001
3.133758e+003,1.225677e-001
3.135687e+003,1.242246e-001
3.137615e+003,1.261143e-001
3.139544e+003,1.280695e-001
3.141472e+003,1.296176e-001
3.143401e+003,1.309061e-001
3.145329e+003,1.332254e-001
3.147258e+003,1.355268e-001
3.149186e+003,1.369032e-001
3.151115e+003,1.387802e-001
3.153043e+003,1.413158e-001
3.154971e+003,1.434471e-001
3.156900e+003,1.449705e-001
3.158828e+003,1.466016e-001
3.160757e+003,1.481842e-001
3.162685e+003,1.498106e-001
3.164614e+003,1.514508e-001
3.166542e+003,1.535662e-001
3.168471e+003,1.556799e-001
3.170399e+003,1.574590e-001
3.172328e+003,1.591999e-001
3.174256e+003,1.610504e-001
3.176185e+003,1.627457e-001
3.178113e+003,1.644742e-001
3.180042e+003,1.660018e-001
3.181970e+003,1.682276e-001
3.183898e+003,1.701359e-001
3.185827e+003,1.721054e-001
3.187755e+003,1.740033e-001
3.189684e+003,1.752598e-001
3.191612e+003,1.766372e-001
3.193541e+003,1.780260e-001
3.195469e+003,1.798645e-001
3.197398e+003,1.822889e-001
3.199326e+003,1.837287e-001
3.201255e+003,1.839664e-001
3.203183e+003,1.850030e-001
3.205112e+003,1.873749e-001
3.207040e+003,1.889542e-001
3.208969e+003,1.892239e-001
3.210897e+003,1.903930e-001
3.212825e+003,1.920859e-001
3.214754e+003,1.932297e-001
3.216682e+003,1.949151e-001
3.218611e+003,1.964121e-001
3.220539e+003,1.972767e-001
3.222468e+003,1.980930e-001
3.224396e+003,1.983775e-001
3.226325e+003,1.990087e-001
3.228253e+003,2.004156e-001
3.230182e+003,2.020905e-001
3.232110e+003,2.028183e-001
3.234039e+003,2.031385e-001
3.235967e+003,2.044428e-001
3.237896e+003,2.053335e-001
3.239824e+003,2.052631e-001
3.241752e+003,2.055473e-001
3.243681e+003,2.068878e-001
3.245609e+003,2.070267e-001
3.247538e+003,2.072734e-001
3.249466e+003,2.077393e-001
3.251395e+003,2.082845e-001
3.253323e+003,2.091363e-001
3.255252e+003,2.090729e-001
3.257180e+003,2.093835e-001
3.259109e+003,2.097220e-001
3.261037e+003,2.103166e-001
3.262966e+003,2.107416e-001
3.264894e+003,2.100380e-001
3.266823e+003,2.106354e-001
3.268751e+003,2.120213e-001
3.270679e+003,2.124929e-001
3.272608e+003,2.120350e-001
3.274536e+003,2.120571e-001
3.276465e+003,2.125103e-001
3.278393e+003,2.118041e-001
3.280322e+003,2.118082e-001
3.282250e+003,2.122159e-001
3.284179e+003,2.121514e-001
3.286107e+003,2.118469e-001
3.288036e+003,2.120992e-001
3.289964e+003,2.133727e-001
3.291893e+003,2.135757e-001
3.293821e+003,2.136673e-001
3.295750e+003,2.137918e-001
3.297678e+003,2.136901e-001
3.299606e+003,2.135938e-001
3.301535e+003,2.135479e-001
3.303463e+003,2.127079e-001
3.305392e+003,2.127718e-001
3.307320e+003,2.134387e-001
3.309249e+003,2.133021e-001
3.311177e+003,2.141530e-001
3.313106e+003,2.147077e-001
3.315034e+003,2.137061e-001
3.316963e+003,2.136817e-001
3.318891e+003,2.139336e-001
3.320820e+003,2.147229e-001
3.322748e+003,2.153872e-001
3.324677e+003,2.151846e-001
3.326605e+003,2.150722e-001
3.328533e+003,2.161462e-001
3.330462e+003,2.171542e-001
3.332390e+003,2.168749e-001
3.334319e+003,2.158546e-001
3.336247e+003,2.147643e-001
3.338176e+003,2.144782e-001
3.340104e+003,2.156807e-001
3.342033e+003,2.151442e-001
3.343961e+003,2.142170e-001
3.345890e+003,2.149022e-001
3.347818e+003,2.156720e-001
3.349747e+003,2.151992e-001
3.351675e+003,2.146808e-001
3.353604e+003,2.149937e-001
3.355532e+003,2.153444e-001
3.357460e+003,2.145240e-001
3.359389e+003,2.137320e-001
3.361317e+003,2.140576e-001
3.363246e+003,2.139353e-001
3.365174e+003,2.136062e-001
3.367103e+003,2.133230e-001
3.369031e+003,2.130909e-001
3.370960e+003,2.129893e-001
3.372888e+003,2.124526e-001
3.374817e+003,2.107910e-001
3.376745e+003,2.090011e-001
3.378674e+003,2.079257e-001
3.380602e+003,2.086588e-001
3.382531e+003,2.077796e-001
3.384459e+003,2.058736e-001
3.386387e+003,2.061427e-001
3.388316e+003,2.072669e-001
3.390244e+003,2.064095e-001
3.392173e+003,2.046122e-001
3.394101e+003,2.033068e-001
3.396030e+003,2.022584e-001
3.397958e+003,2.018085e-001
3.399887e+003,2.013402e-001
3.401815e+003,2.004231e-001
3.403744e+003,1.997040e-001
3.405672e+003,1.991088e-001
3.407601e+003,1.969612e-001
3.409529e+003,1.947280e-001
3.411458e+003,1.933898e-001
3.413386e+003,1.930635e-001
3.415314e+003,1.928363e-001
3.417243e+003,1.920301e-001
3.419171e+003,1.904473e-001
3.421100e+003,1.880258e-001
3.423028e+003,1.856159e-001
3.424957e+003,1.832345e-001
3.426885e+003,1.820489e-001
3.428814e+003,1.811300e-001
3.430742e+003,1.803673e-001
3.432671e+003,1.791030e-001
3.434599e+003,1.783974e-001
3.436528e+003,1.771063e-001
3.438456e+003,1.750186e-001
3.440385e+003,1.727372e-001
3.442313e+003,1.698002e-001
3.444241e+003,1.688524e-001
3.446170e+003,1.685350e-001
3.448098e+003,1.674037e-001
3.450027e+003,1.657815e-001
3.451955e+003,1.646092e-001
3.453884e+003,1.622974e-001
3.455812e+003,1.593127e-001
3.457741e+003,1.579302e-001
3.459669e+003,1.570754e-001
3.461598e+003,1.559064e-001
3.463526e+003,1.544272e-001
3.465455e+003,1.534809e-001
3.467383e+003,1.519404e-001
3.469312e+003,1.504565e-001
3.471240e+003,1.489330e-001
3.473168e+003,1.477538e-001
3.475097e+003,1.461258e-001
3.477025e+003,1.441880e-001
3.478954e+003,1.421785e-001
3.480882e+003,1.408173e-001
3.482811e+003,1.392161e-001
3.484739e+003,1.386602e-001
3.486668e+003,1.380633e-001
3.488596e+003,1.355821e-001
3.490525e+003,1.330822e-001
3.492453e+003,1.315933e-001
3.494382e+003,1.309449e-001
3.496310e+003,1.300229e-001
3.498239e+003,1.280866e-001
3.500167e+003,1.265289e-001
3.502095e+003,1.255539e-001
3.504024e+003,1.240952e-001
3.505952e+003,1.222432e-001
3.507881e+003,1.207224e-001
3.509809e+003,1.189069e-001
3.511738e+003,1.176613e-001
3.513666e+003,1.162811e-001
3.515595e+003,1.144646e-001
3.517523e+003,1.126515e-001
3.519452e+003,1.110625e-001
3.521380e+003,1.103221e-001
3.523309e+003,1.086534e-001
3.525237e+003,1.063194e-001
3.527166e+003,1.046951e-001
3.529094e+003,1.035849e-001
3.531022e+003,1.023497e-001
3.532951e+003,1.009144e-001
3.534879e+003,9.896038e-002
3.536808e+003,9.772596e-002
3.538736e+003,9.664030e-002
3.540665e+003,9.461773e-002
3.542593e+003,9.270620e-002
3.544522e+003,9.118348e-002
3.546450e+003,8.929085e-002
3.548379e+003,8.871309e-002
3.550307e+003,8.863896e-002
3.552236e+003,8.718362e-002
3.554164e+003,8.506089e-002
3.556093e+003,8.344076e-002
3.558021e+003,8.226499e-002
3.559949e+003,8.083074e-002
3.561878e+003,7.969545e-002
3.563806e+003,7.849558e-002
3.565735e+003,7.645980e-002
3.567663e+003,7.485237e-002
3.569592e+003,7.360938e-002
3.571520e+003,7.255649e-002
3.573449e+003,7.192712e-002
3.575377e+003,7.032430e-002
3.577306e+003,6.867425e-002
3.579234e+003,6.736386e-002
3.581163e+003,6.534615e-002
3.583091e+003,6.505943e-002
3.585020e+003,6.457640e-002
3.586948e+003,6.315020e-002
3.588876e+003,6.224680e-002
3.590805e+003,6.183518e-002
3.592733e+003,6.069442e-002
3.594662e+003,5.834790e-002
3.596590e+003,5.651743e-002
3.598519e+003,5.540770e-002
3.600447e+003,5.440072e-002
3.602376e+003,5.334837e-002
3.604304e+003,5.279383e-002
3.606233e+003,5.115425e-002
3.608161e+003,4.943644e-002
3.610090e+003,4.831774e-002
3.612018e+003,4.748921e-002
3.613947e+003,4.637761e-002
3.615875e+003,4.518693e-002
3.617803e+003,4.453469e-002
3.619732e+003,4.373155e-002
3.621660e+003,4.261234e-002
3.623589e+003,4.174646e-002
3.625517e+003,4.083290e-002
3.627446e+003,3.997480e-002
3.629374e+003,3.879460e-002
3.631303e+003,3.759213e-002
3.633231e+003,3.606932e-002
3.635160e+003,3.517991e-002
3.637088e+003,3.385336e-002
3.639017e+003,3.269044e-002
3.640945e+003,3.149546e-002
3.642874e+003,2.995313e-002
3.644802e+003,2.877323e-002
3.646730e+003,2.774427e-002
3.648659e+003,2.692175e-002
3.650587e+003,2.580742e-002
3.652516e+003,2.477185e-002
3.654444e+003,2.364468e-002
3.656373e+003,2.240958e-002
3.658301e+003,2.160053e-002
3.660230e+003,2.028445e-002
3.662158e+003,1.820619e-002
3.664087e+003,1.685515e-002
3.666015e+003,1.664433e-002
3.667944e+003,1.593925e-002
3.669872e+003,1.468916e-002
3.671801e+003,1.416006e-002
3.673729e+003,1.380587e-002
3.675657e+003,1.274577e-002
3.677586e+003,1.192716e-002
3.679514e+003,1.088852e-002
3.681443e+003,9.323790e-003
3.683371e+003,8.373458e-003
3.685300e+003,8.567494e-003
3.687228e+003,7.859813e-003
3.689157e+003,7.458435e-003
3.691085e+003,7.389406e-003
3.693014e+003,6.473089e-003
3.694942e+003,6.073326e-003
3.696871e+003,5.529773e-003
3.698799e+003,5.388078e-003
3.700728e+003,5.402638e-003
3.702656e+003,5.270644e-003
3.704584e+003,4.897452e-003
3.706513e+003,4.336291e-003
3.708441e+003,4.068474e-003
3.710370e+003,4.005968e-003
3.712298e+003,4.323942e-003
3.714227e+003,3.523046e-003
3.716155e+003,3.087444e-003
3.718084e+003,3.380936e-003
3.720012e+003,3.019074e-003
3.721941e+003,2.780945e-003
3.723869e+003,2.777877e-003
3.725798e+003,2.766939e-003
3.727726e+003,3.102895e-003
3.729655e+003,3.126723e-003
3.731583e+003,2.941873e-003
3.733511e+003,2.832602e-003
3.735440e+003,2.843908e-003
3.737368e+003,3.333587e-003
3.739297e+003,2.948145e-003
3.741225e+003,2.225874e-003
3.743154e+003,1.970605e-003
3.745082e+003,1.909099e-003
3.747011e+003,1.722072e-003
3.748939e+003,1.099718e-003
3.750868e+003,8.744255e-004
3.752796e+003,7.797803e-004
3.754725e+003,7.633498e-004
3.756653e+003,4.046225e-004
3.758582e+003,2.383986e-004
3.760510e+003,-6.476849e-004
3.762438e+003,-1.056188e-003
3.764367e+003,-6.317047e-004
3.766295e+003,-6.637968e-004
3.768224e+003,-6.448727e-004
3.770152e+003,-5.254198e-004
3.772081e+003,-6.604223e-004
3.774009e+003,-5.555343e-004
3.775938e+003,-7.956474e-004
3.777866e+003,-1.010241e-003
3.779795e+003,-1.058105e-003
3.781723e+003,-1.168786e-003
3.783652e+003,-1.361033e-003
3.785580e+003,-9.773476e-004
3.787509e+003,-5.341566e-004
3.789437e+003,-3.192285e-004
3.791365e+003,-6.092719e-004
3.793294e+003,-8.476356e-004
3.795222e+003,-1.095949e-003
3.797151e+003,-1.468038e-003
3.799079e+003,-1.283470e-003
3.801008e+003,-1.525493e-003
3.802936e+003,-1.626516e-003
3.804865e+003,-1.511328e-003
3.806793e+003,-1.310361e-003
3.808722e+003,-1.054469e-003
3.810650e+003,-1.463580e-003
3.812579e+003,-1.256446e-003
3.814507e+003,-1.051593e-003
3.816436e+003,-1.272040e-003
3.818364e+003,-1.391221e-003
3.820292e+003,-1.223638e-003
3.822221e+003,-9.132735e-004
3.824149e+003,-1.192842e-003
3.826078e+003,-1.393698e-003
3.828006e+003,-1.235466e-003
3.829935e+003,-1.024819e-003
3.831863e+003,-1.069541e-003
3.833792e+003,-1.552699e-003
3.835720e+003,-1.776026e-003
3.837649e+003,-1.646321e-003
3.839577e+003,-1.501884e-003
3.841506e+003,-1.336127e-003
3.843434e+003,-1.269859e-003
3.845363e+003,-1.915259e-003
3.847291e+003,-2.168963e-003
3.849219e+003,-1.902954e-003
3.851148e+003,-1.758932e-003
3.853076e+003,-1.791964e-003
3.855005e+003,-1.970147e-003
3.856933e+003,-1.625723e-003
3.858862e+003,-1.760120e-003
3.860790e+003,-2.286844e-003
3.862719e+003,-1.777445e-003
3.864647e+003,-1.450371e-003
3.866576e+003,-1.471703e-003
3.868504e+003,-1.433792e-003
3.870433e+003,-1.981626e-003
3.872361e+003,-2.637233e-003
3.874290e+003,-2.938667e-003
3.876218e+003,-2.666707e-003
3.878146e+003,-2.496683e-003
3.880075e+003,-2.330250e-003
3.882003e+003,-2.219798e-003
3.883932e+003,-2.292777e-003
3.885860e+003,-2.629394e-003
3.887789e+003,-2.708989e-003
3.889717e+003,-2.388777e-003
3.891646e+003,-1.520012e-003
3.893574e+003,-1.501224e-003
3.895503e+003,-2.330580e-003
3.897431e+003,-2.922705e-003
3.899360e+003,-2.754789e-003
3.901288e+003,-2.547875e-003
3.903217e+003,-2.580550e-003
3.905145e+003,-2.394445e-003
3.907073e+003,-2.355659e-003
3.909002e+003,-2.086961e-003
3.910930e+003,-1.747448e-003
3.912859e+003,-2.175821e-003
3.914787e+003,-2.726308e-003
3.916716e+003,-2.871919e-003
3.918644e+003,-2.742870e-003
3.920573e+003,-2.132597e-003
3.922501e+003,-2.077761e-003
3.924430e+003,-2.717846e-003
3.926358e+003,-2.702601e-003
3.928287e+003,-2.414644e-003
3.930215e+003,-2.731939e-003
3.932144e+003,-2.777901e-003
3.934072e+003,-2.086071e-003
3.936000e+003,-2.115055e-003
3.937929e+003,-2.725749e-003
3.939857e+003,-2.551367e-003
3.941786e+003,-2.243170e-003
3.943714e+003,-2.560623e-003
3.945643e+003,-2.688737e-003
3.947571e+003,-2.408087e-003
3.949500e+003,-2.344520e-003
3.951428e+003,-2.219139e-003
3.953357e+003,-2.389601e-003
3.955285e+003,-2.815728e-003
3.957214e+003,-3.162138e-003
3.959142e+003,-2.675368e-003
3.961071e+003,-2.588851e-003
3.962999e+003,-2.731840e-003
3.964927e+003,-2.196755e-003
3.966856e+003,-1.510040e-003
3.968784e+003,-1.643218e-003
3.970713e+003,-2.298644e-003
3.972641e+003,-2.384065e-003
3.974570e+003,-2.769276e-003
3.976498e+003,-3.043046e-003
3.978427e+003,-3.062689e-003
3.980355e+003,-3.119473e-003
3.982284e+003,-3.026200e-003
3.984212e+003,-3.115295e-003
3.986141e+003,-2.322242e-003
3.988069e+003,-1.900249e-003
3.989998e+003,-2.936922e-003
3.991926e+003,-3.738053e-003
3.993854e+003,-2.782083e-003
3.995783e+003,-1.850894e-003
3.997711e+003,-2.008869e-003
3.999640e+003,-2.838278e-003
4.001568e+003,0.000000e+000
