3.991927e+002,0.000000e+000
4.011211e+002,0.000000e+000
4.030496e+002,0.000000e+000
4.049781e+002,0.000000e+000
4.069065e+002,0.000000e+000
4.088350e+002,0.000000e+000
4.107635e+002,0.000000e+000
4.126919e+002,0.000000e+000
4.146204e+002,0.000000e+000
4.165489e+002,0.000000e+000
4.184773e+002,0.000000e+000
4.204058e+002,0.000000e+000
4.223343e+002,0.000000e+000
4.242627e+002,0.000000e+000
4.261912e+002,0.000000e+000
4.281197e+002,0.000000e+000
4.300481e+002,0.000000e+000
4.319766e+002,0.000000e+000
4.339051e+002,0.000000e+000
4.358335e+002,0.000000e+000
4.377620e+002,0.000000e+000
4.396905e+002,0.000000e+000
4.416189e+002,0.000000e+000
4.435474e+002,0.000000e+000
4.454759e+002,0.000000e+000
4.474043e+002,0.000000e+000
4.493328e+002,0.000000e+000
4.512613e+002,0.000000e+000
4.531897e+002,0.000000e+000
4.551182e+002,0.000000e+000
4.570467e+002,0.000000e+000
4.589751e+002,0.000000e+000
4.609036e+002,0.000000e+000
4.628321e+002,0.000000e+000
4.647605e+002,0.000000e+000
4.666890e+002,0.000000e+000
4.686175e+002,0.000000e+000
4.705459e+002,0.000000e+000
4.724744e+002,0.000000e+000
4.744029e+002,0.000000e+000
4.763313e+002,0.000000e+000
4.782598e+002,0.000000e+000
4.801883e+002,0.000000e+000
4.821167e+002,0.000000e+000
4.840452e+002,0.000000e+000
4.859737e+002,0.000000e+000
4.879021e+002,0.000000e+000
4.898306e+002,0.000000e+000
4.917591e+002,0.000000e+000
4.936875e+002,0.000000e+000
4.956160e+002,0.000000e+000
4.975445e+002,0.000000e+000
4.994729e+002,0.000000e+000
5.014014e+002,0.000000e+000
5.033299e+002,0.000000e+000
5.052583e+002,0.000000e+000
5.071868e+002,0.000000e+000
5.091153e+002,0.000000e+000
5.110437e+002,0.000000e+000
5.129722e+002,0.000000e+000
5.149006e+002,0.000000e+000
5.168291e+002,0.000000e+000
5.187576e+002,0.000000e+000
5.206860e+002,0.000000e+000
5.226145e+002,0.000000e+000
5.245430e+002,0.000000e+000
5.264714e+002,0.000000e+000
5.283999e+002,0.000000e+000
5.303284e+002,0.000000e+000
5.322568e+002,0.000000e+000
5.341853e+002,0.000000e+000
5.361138e+002,0.000000e+000
5.380422e+002,0.000000e+000
5.399707e+002,0.000000e+000
5.418992e+002,0.000000e+000
5.438276e+002,0.000000e+000
5.457561e+002,0.000000e+000
5.476846e+002,0.000000e+000
5.496130e+002,0.000000e+000
5.515415e+002,0.000000e+000
5.534700e+002,0.000000e+000
5.553984e+002,0.000000e+000
5.573269e+002,0.000000e+000
5.592554e+002,0.000000e+000
5.611838e+002,0.000000e+000
5.631123e+002,0.000000e+000
5.650408e+002,0.000000e+000
5.669692e+002,0.000000e+000
5.688977e+002,0.000000e+000
5.708262e+002,0.000000e+000
5.727546e+002,0.000000e+000
5.746831e+002,0.000000e+000
5.766116e+002,0.000000e+000
5.785400e+002,0.000000e+000
5.804685e+002,0.000000e+000
5.823970e+002,0.000000e+000
5.843254e+002,0.000000e+000
5.862539e+002,0.000000e+000
5.881824e+002,0.000000e+000
5.901108e+002,0.000000e+000
5.920393e+002,0.000000e+000
5.939678e+002,0.000000e+000
5.958962e+002,0.000000e+000
5.978247e+002,0.000000e+000
5.997532e+002,0.000000e+000
6.016816e+002,0.000000e+000
6.036101e+002,0.000000e+000
6.055386e+002,0.000000e+000
6.074670e+002,0.000000e+000
6.093955e+002,0.000000e+000
6.113240e+002,0.000000e+000
6.132524e+002,0.000000e+000
6.151809e+002,0.000000e+000
6.171094e+002,0.000000e+000
6.190378e+002,0.000000e+000
6.209663e+002,0.000000e+000
6.228948e+002,0.000000e+000
6.248232e+002,0.000000e+000
6.267517e+002,0.000000e+000
6.286802e+002,0.000000e+000
6.306086e+002,0.000000e+000
6.325371e+002,0.000000e+000
6.344656e+002,0.000000e+000
6.363940e+002,0.000000e+000
6.383225e+002,0.000000e+000
6.402510e+002,0.000000e+000
6.421794e+002,0.000000e+000
6.441079e+002,0.000000e+000
6.460364e+002,0.000000e+000
6.479648e+002,0.000000e+000
6.498933e+002,3.869075e-001
6.518218e+002,3.839873e-001
6.537502e+002,3.785602e-001
6.556787e+002,3.747260e-001
6.576072e+002,3.737866e-001
6.595356e+002,3.730880e-001
6.614641e+002,3.683043e-001
6.633926e+002,3.668256e-001
6.653210e+002,3.642357e-001
6.672495e+002,3.611196e-001
6.691780e+002,3.581153e-001
6.711064e+002,3.553125e-001
6.730349e+002,3.522616e-001
6.749634e+002,3.495306e-001
6.768918e+002,3.459468e-001
6.788203e+002,3.431629e-001
6.807488e+002,3.411767e-001
6.826772e+002,3.390716e-001
6.846057e+002,3.382208e-001
6.865342e+002,3.358274e-001
6.884626e+002,3.338736e-001
6.903911e+002,3.326927e-001
6.923196e+002,3.305004e-001
6.942480e+002,3.272732e-001
6.961765e+002,3.253819e-001
6.981050e+002,3.236922e-001
7.000334e+002,3.217236e-001
7.019619e+002,3.186519e-001
7.038904e+002,3.168778e-001
7.058188e+002,3.158085e-001
7.077473e+002,3.137911e-001
7.096758e+002,3.114339e-001
7.116042e+002,3.082134e-001
7.135327e+002,3.055187e-001
7.154612e+002,3.029988e-001
7.173896e+002,2.991753e-001
7.193181e+002,2.934756e-001
7.212466e+002,2.911681e-001
7.231750e+002,2.903652e-001
7.251035e+002,2.879604e-001
7.270320e+002,2.861694e-001
7.289604e+002,2.831349e-001
7.308889e+002,2.793351e-001
7.328174e+002,2.768484e-001
7.347458e+002,2.755588e-001
7.366743e+002,2.725359e-001
7.386028e+002,2.687823e-001
7.405313e+002,2.650336e-001
7.424597e+002,2.627437e-001
7.443882e+002,2.602080e-001
7.463167e+002,2.580334e-001
7.482451e+002,2.564824e-001
7.501736e+002,2.547096e-001
7.521021e+002,2.513919e-001
7.540305e+002,2.479293e-001
7.559590e+002,2.449139e-001
7.578875e+002,2.415878e-001
7.598159e+002,2.398840e-001
7.617444e+002,2.379334e-001
7.636729e+002,2.351851e-001
7.656013e+002,2.327099e-001
7.675298e+002,2.306638e-001
7.694583e+002,2.284826e-001
7.713867e+002,2.256243e-001
7.733152e+002,2.227239e-001
7.752437e+002,2.209846e-001
7.771721e+002,2.189237e-001
7.791006e+002,2.155079e-001
7.810291e+002,2.115014e-001
7.829575e+002,2.093702e-001
7.848860e+002,2.079682e-001
7.868145e+002,2.040319e-001
7.887429e+002,1.996132e-001
7.906714e+002,1.974044e-001
7.925999e+002,1.948232e-001
7.945283e+002,1.927032e-001
7.964568e+002,1.896206e-001
7.983853e+002,1.862195e-001
8.003137e+002,1.847135e-001
8.022422e+002,1.825268e-001
8.041707e+002,1.800807e-001
8.060991e+002,1.780066e-001
8.080276e+002,1.760758e-001
8.099561e+002,1.740214e-001
8.118845e+002,1.703312e-001
8.138130e+002,1.675827e-001
8.157415e+002,1.660235e-001
8.176699e+002,1.643422e-001
8.195984e+002,1.627229e-001
8.215269e+002,1.602627e-001
8.234553e+002,1.576353e-001
8.253838e+002,1.558073e-001
8.273123e+002,1.544645e-001
8.292407e+002,1.533871e-001
8.311692e+002,1.514458e-001
8.330977e+002,1.499446e-001
8.350261e+002,1.485668e-001
8.369546e+002,1.465372e-001
8.388831e+002,1.439959e-001
8.408115e+002,1.410930e-001
8.427400e+002,1.386512e-001
8.446685e+002,1.368972e-001
8.465969e+002,1.354103e-001
8.485254e+002,1.329228e-001
8.504539e+002,1.307204e-001
8.523823e+002,1.285972e-001
8.543108e+002,1.266459e-001
8.562393e+002,1.246841e-001
8.581677e+002,1.228044e-001
8.600962e+002,1.206374e-001
8.620247e+002,1.186352e-001
8.639531e+002,1.172955e-001
8.658816e+002,1.154145e-001
8.678101e+002,1.124590e-001
8.697385e+002,1.102336e-001
8.716670e+002,1.092589e-001
8.735955e+002,1.074909e-001
8.755239e+002,1.060259e-001
8.774524e+002,1.046666e-001
8.793809e+002,1.035189e-001
8.813093e+002,1.022722e-001
8.832378e+002,1.005661e-001
8.851663e+002,9.891648e-002
8.870947e+002,9.797060e-002
8.890232e+002,9.694824e-002
8.909517e+002,9.494518e-002
8.928801e+002,9.318553e-002
8.948086e+002,9.204876e-002
8.967371e+002,9.053528e-002
8.986655e+002,8.927742e-002
9.005940e+002,8.746709e-002
9.025225e+002,8.554124e-002
9.044509e+002,8.426857e-002
9.063794e+002,8.247299e-002
9.083079e+002,8.120120e-002
9.102363e+002,8.045325e-002
9.121648e+002,7.963068e-002
9.140933e+002,7.890768e-002
9.160217e+002,7.813781e-002
9.179502e+002,7.624664e-002
9.198787e+002,7.552022e-002
9.218071e+002,7.531954e-002
9.237356e+002,7.403109e-002
9.256641e+002,7.235416e-002
9.275925e+002,7.103587e-002
9.295210e+002,6.991509e-002
9.314495e+002,6.928489e-002
9.333779e+002,6.879722e-002
9.353064e+002,6.761156e-002
9.372349e+002,6.680803e-002
9.391633e+002,6.600976e-002
9.410918e+002,6.508903e-002
9.430203e+002,6.442560e-002
9.449487e+002,6.390715e-002
9.468772e+002,6.299416e-002
9.488057e+002,6.235297e-002
9.507341e+002,6.209050e-002
9.526626e+002,6.147717e-002
9.545911e+002,6.129218e-002
9.565195e+002,6.117205e-002
9.584480e+002,6.074533e-002
9.603765e+002,6.009569e-002
9.623049e+002,5.966702e-002
9.642334e+002,5.936363e-002
9.661619e+002,5.924254e-002
9.680903e+002,5.888688e-002
9.700188e+002,5.887045e-002
9.719473e+002,5.947160e-002
9.738757e+002,5.971800e-002
9.758042e+002,5.938133e-002
9.777327e+002,5.917567e-002
9.796611e+002,5.884814e-002
9.815896e+002,5.824986e-002
9.835181e+002,5.818265e-002
9.854465e+002,5.844095e-002
9.873750e+002,5.847859e-002
9.893035e+002,5.870049e-002
9.912319e+002,5.913386e-002
9.931604e+002,5.922386e-002
9.950889e+002,5.921292e-002
9.970173e+002,5.924877e-002
9.989458e+002,5.992502e-002
1.000874e+003,6.038314e-002
1.002803e+003,6.173957e-002
1.004731e+003,6.329803e-002
1.006660e+003,6.507841e-002
1.008588e+003,6.745920e-002
1.010517e+003,7.046251e-002
1.012445e+003,7.353371e-002
1.014374e+003,7.519668e-002
1.016302e+003,7.537681e-002
1.018230e+003,7.421533e-002
1.020159e+003,7.199993e-002
1.022087e+003,6.945501e-002
1.024016e+003,6.673017e-002
1.025944e+003,6.432999e-002
1.027873e+003,6.280738e-002
1.029801e+003,6.215599e-002
1.031730e+003,6.142835e-002
1.033658e+003,6.085994e-002
1.035587e+003,6.073283e-002
1.037515e+003,6.117239e-002
1.039444e+003,6.152878e-002
1.041372e+003,6.160018e-002
1.043301e+003,6.179912e-002
1.045229e+003,6.235319e-002
1.047157e+003,6.273746e-002
1.049086e+003,6.293222e-002
1.051014e+003,6.361631e-002
1.052943e+003,6.398335e-002
1.054871e+003,6.375336e-002
1.056800e+003,6.264464e-002
1.058728e+003,6.163183e-002
1.060657e+003,6.015478e-002
1.062585e+003,5.840949e-002
1.064514e+003,5.753384e-002
1.066442e+003,5.720808e-002
1.068371e+003,5.666173e-002
1.070299e+003,5.637431e-002
1.072228e+003,5.641015e-002
1.074156e+003,5.637563e-002
1.076084e+003,5.616724e-002
1.078013e+003,5.621638e-002
1.079941e+003,5.620088e-002
1.081870e+003,5.646230e-002
1.083798e+003,5.612146e-002
1.085727e+003,5.551782e-002
1.087655e+003,5.576036e-002
1.089584e+003,5.565727e-002
1.091512e+003,5.442749e-002
1.093441e+003,5.288476e-002
1.095369e+003,5.140650e-002
1.097298e+003,5.063047e-002
1.099226e+003,5.001923e-002
1.101155e+003,4.946551e-002
1.103083e+003,4.884964e-002
1.105011e+003,4.799023e-002
1.106940e+003,4.745350e-002
1.108868e+003,4.725611e-002
1.110797e+003,4.667731e-002
1.112725e+003,4.642488e-002
1.114654e+003,4.723753e-002
1.116582e+003,4.693944e-002
1.118511e+003,4.567779e-002
1.120439e+003,4.569101e-002
1.122368e+003,4.531475e-002
1.124296e+003,4.476152e-002
1.126225e+003,4.495326e-002
1.128153e+003,4.494683e-002
1.130082e+003,4.509612e-002
1.132010e+003,4.536267e-002
1.133938e+003,4.567474e-002
1.135867e+003,4.588924e-002
1.137795e+003,4.547355e-002
1.139724e+003,4.482154e-002
1.141652e+003,4.427701e-002
1.143581e+003,4.380840e-002
1.145509e+003,4.302346e-002
1.147438e+003,4.285458e-002
1.149366e+003,4.249163e-002
1.151295e+003,4.169652e-002
1.153223e+003,4.151168e-002
1.155152e+003,4.180880e-002
1.157080e+003,4.141282e-002
1.159009e+003,4.091655e-002
1.160937e+003,4.054336e-002
1.162865e+003,4.003548e-002
1.164794e+003,3.962532e-002
1.166722e+003,3.936792e-002
1.168651e+003,3.906859e-002
1.170579e+003,3.908592e-002
1.172508e+003,3.946015e-002
1.174436e+003,3.971263e-002
1.176365e+003,3.930027e-002
1.178293e+003,3.884700e-002
1.180222e+003,3.904916e-002
1.182150e+003,3.961468e-002
1.184079e+003,4.018898e-002
1.186007e+003,4.059392e-002
1.187936e+003,4.077102e-002
1.189864e+003,4.104309e-002
1.191792e+003,4.128406e-002
1.193721e+003,4.155514e-002
1.195649e+003,4.205483e-002
1.197578e+003,4.225371e-002
1.199506e+003,4.241282e-002
1.201435e+003,4.222990e-002
1.203363e+003,4.200939e-002
1.205292e+003,4.252686e-002
1.207220e+003,4.292652e-002
1.209149e+003,4.331543e-002
1.211077e+003,4.361610e-002
1.213006e+003,4.360694e-002
1.214934e+003,4.369744e-002
1.216863e+003,4.392786e-002
1.218791e+003,4.401703e-002
1.220719e+003,4.441209e-002
1.222648e+003,4.456696e-002
1.224576e+003,4.489734e-002
1.226505e+003,4.519013e-002
1.228433e+003,4.530339e-002
1.230362e+003,4.558604e-002
1.232290e+003,4.582664e-002
1.234219e+003,4.582214e-002
1.236147e+003,4.567569e-002
1.238076e+003,4.575554e-002
1.240004e+003,4.606085e-002
1.241933e+003,4.603281e-002
1.243861e+003,4.609312e-002
1.245790e+003,4.627112e-002
1.247718e+003,4.632939e-002
1.249646e+003,4.608722e-002
1.251575e+003,4.617492e-002
1.253503e+003,4.616003e-002
1.255432e+003,4.581378e-002
1.257360e+003,4.603775e-002
1.259289e+003,4.617725e-002
1.261217e+003,4.582642e-002
1.263146e+003,4.498924e-002
1.265074e+003,4.449971e-002
1.267003e+003,4.511193e-002
1.268931e+003,4.587550e-002
1.270860e+003,4.665410e-002
1.272788e+003,4.734249e-002
1.274717e+003,4.743440e-002
1.276645e+003,4.712074e-002
1.278573e+003,4.685871e-002
1.280502e+003,4.679989e-002
1.282430e+003,4.659168e-002
1.284359e+003,4.620525e-002
1.286287e+003,4.569907e-002
1.288216e+003,4.533082e-002
1.290144e+003,4.510704e-002
1.292073e+003,4.468615e-002
1.294001e+003,4.406011e-002
1.295930e+003,4.346435e-002
1.297858e+003,4.300195e-002
1.299787e+003,4.263032e-002
1.301715e+003,4.208210e-002
1.303644e+003,4.129889e-002
1.305572e+003,4.102506e-002
1.307500e+003,4.076727e-002
1.309429e+003,4.007436e-002
1.311357e+003,3.980315e-002
1.313286e+003,3.959229e-002
1.315214e+003,3.940710e-002
1.317143e+003,3.934278e-002
1.319071e+003,3.923665e-002
1.321000e+003,3.916880e-002
1.322928e+003,3.925377e-002
1.324857e+003,3.944607e-002
1.326785e+003,3.938087e-002
1.328714e+003,3.939027e-002
1.330642e+003,3.935515e-002
1.332571e+003,3.930585e-002
1.334499e+003,3.899438e-002
1.336427e+003,3.894375e-002
1.338356e+003,3.901508e-002
1.340284e+003,3.891998e-002
1.342213e+003,3.900613e-002
1.344141e+003,3.917290e-002
1.346070e+003,3.940134e-002
1.347998e+003,3.958477e-002
1.349927e+003,3.954333e-002
1.351855e+003,3.977101e-002
1.353784e+003,4.014707e-002
1.355712e+003,4.041613e-002
1.357641e+003,4.077477e-002
1.359569e+003,4.124631e-002
1.361498e+003,4.191279e-002
1.363426e+003,4.209762e-002
1.365354e+003,4.202242e-002
1.367283e+003,4.239481e-002
1.369211e+003,4.248242e-002
1.371140e+003,4.236540e-002
1.373068e+003,4.244208e-002
1.374997e+003,4.256629e-002
1.376925e+003,4.249923e-002
1.378854e+003,4.232910e-002
1.380782e+003,4.221518e-002
1.382711e+003,4.197202e-002
1.384639e+003,4.174540e-002
1.386568e+003,4.170283e-002
1.388496e+003,4.149699e-002
1.390425e+003,4.151908e-002
1.392353e+003,4.157275e-002
1.394281e+003,4.137425e-002
1.396210e+003,4.120431e-002
1.398138e+003,4.106986e-002
1.400067e+003,4.072546e-002
1.401995e+003,4.074700e-002
1.403924e+003,4.114281e-002
1.405852e+003,4.126679e-002
1.407781e+003,4.118281e-002
1.409709e+003,4.105638e-002
1.411638e+003,4.094626e-002
1.413566e+003,4.075807e-002
1.415495e+003,4.077357e-002
1.417423e+003,4.073736e-002
1.419352e+003,4.060022e-002
1.421280e+003,4.072171e-002
1.423208e+003,4.074285e-002
1.425137e+003,4.055736e-002
1.427065e+003,4.047705e-002
1.428994e+003,4.046170e-002
1.430922e+003,4.038431e-002
1.432851e+003,4.029883e-002
1.434779e+003,4.001633e-002
1.436708e+003,4.018560e-002
1.438636e+003,4.055056e-002
1.440565e+003,4.068233e-002
1.442493e+003,4.078918e-002
1.444422e+003,4.076243e-002
1.446350e+003,4.047716e-002
1.448279e+003,4.058705e-002
1.450207e+003,4.089704e-002
1.452135e+003,4.062416e-002
1.454064e+003,4.006240e-002
1.455992e+003,3.946861e-002
1.457921e+003,3.907979e-002
1.459849e+003,3.928137e-002
1.461778e+003,3.899758e-002
1.463706e+003,3.859100e-002
1.465635e+003,3.864427e-002
1.467563e+003,3.841917e-002
1.469492e+003,3.805122e-002
1.471420e+003,3.759928e-002
1.473349e+003,3.730510e-002
1.475277e+003,3.706001e-002
1.477206e+003,3.662229e-002
1.479134e+003,3.644976e-002
1.481063e+003,3.610824e-002
1.482991e+003,3.574908e-002
1.484919e+003,3.547934e-002
1.486848e+003,3.513546e-002
1.488776e+003,3.497041e-002
1.490705e+003,3.482352e-002
1.492633e+003,3.501685e-002
1.494562e+003,3.498855e-002
1.496490e+003,3.512889e-002
1.498419e+003,3.554320e-002
1.500347e+003,3.566264e-002
1.502276e+003,3.598105e-002
1.504204e+003,3.622852e-002
1.506133e+003,3.619744e-002
1.508061e+003,3.660437e-002
1.509990e+003,3.745468e-002
1.511918e+003,3.813419e-002
1.513846e+003,3.855935e-002
1.515775e+003,3.847767e-002
1.517703e+003,3.831894e-002
1.519632e+003,3.793058e-002
1.521560e+003,3.732838e-002
1.523489e+003,3.678815e-002
1.525417e+003,3.617753e-002
1.527346e+003,3.556384e-002
1.529274e+003,3.515084e-002
1.531203e+003,3.498783e-002
1.533131e+003,3.504577e-002
1.535060e+003,3.517017e-002
1.536988e+003,3.535909e-002
1.538917e+003,3.613334e-002
1.540845e+003,3.660726e-002
1.542773e+003,3.655809e-002
1.544702e+003,3.683446e-002
1.546630e+003,3.697832e-002
1.548559e+003,3.705993e-002
1.550487e+003,3.739884e-002
1.552416e+003,3.823933e-002
1.554344e+003,3.908171e-002
1.556273e+003,3.978601e-002
1.558201e+003,4.066807e-002
1.560130e+003,4.135789e-002
1.562058e+003,4.204549e-002
1.563987e+003,4.282489e-002
1.565915e+003,4.379912e-002
1.567844e+003,4.481732e-002
1.569772e+003,4.564805e-002
1.571700e+003,4.665041e-002
1.573629e+003,4.775879e-002
1.575557e+003,4.887030e-002
1.577486e+003,5.013573e-002
1.579414e+003,5.179098e-002
1.581343e+003,5.332008e-002
1.583271e+003,5.466045e-002
1.585200e+003,5.619024e-002
1.587128e+003,5.793761e-002
1.589057e+003,5.941791e-002
1.590985e+003,6.100138e-002
1.592914e+003,6.281932e-002
1.594842e+003,6.488720e-002
1.596771e+003,6.715252e-002
1.598699e+003,6.955501e-002
1.600627e+003,7.229193e-002
1.602556e+003,7.552341e-002
1.604484e+003,7.828543e-002
1.606413e+003,8.075140e-002
1.608341e+003,8.351810e-002
1.610270e+003,8.642264e-002
1.612198e+003,8.905718e-002
1.614127e+003,9.192735e-002
1.616055e+003,9.489897e-002
1.617984e+003,9.769708e-002
1.619912e+003,1.002041e-001
1.621841e+003,1.026692e-001
1.623769e+003,1.052591e-001
1.625698e+003,1.079105e-001
1.627626e+003,1.100954e-001
1.629554e+003,1.117379e-001
1.631483e+003,1.132810e-001
1.633411e+003,1.143486e-001
1.635340e+003,1.150696e-001
1.637268e+003,1.154771e-001
1.639197e+003,1.155801e-001
1.641125e+003,1.151926e-001
1.643054e+003,1.147375e-001
1.644982e+003,1.139273e-001
1.646911e+003,1.126853e-001
1.648839e+003,1.108320e-001
1.650768e+003,1.090399e-001
1.652696e+003,1.075975e-001
1.654625e+003,1.055897e-001
1.656553e+003,1.034272e-001
1.658481e+003,1.012794e-001
1.660410e+003,9.892330e-002
1.662338e+003,9.632224e-002
1.664267e+003,9.371738e-002
1.666195e+003,9.108760e-002
1.668124e+003,8.871731e-002
1.670052e+003,8.613641e-002
1.671981e+003,8.335391e-002
1.673909e+003,8.095868e-002
1.675838e+003,7.878857e-002
1.677766e+003,7.642657e-002
1.679695e+003,7.374769e-002
1.681623e+003,7.126242e-002
1.683552e+003,6.925532e-002
1.685480e+003,6.736111e-002
1.687408e+003,6.547843e-002
1.689337e+003,6.371054e-002
1.691265e+003,6.196139e-002
1.693194e+003,6.025264e-002
1.695122e+003,5.851730e-002
1.697051e+003,5.700541e-002
1.698979e+003,5.577446e-002
1.700908e+003,5.429730e-002
1.702836e+003,5.313319e-002
1.704765e+003,5.185531e-002
1.706693e+003,5.055103e-002
1.708622e+003,4.934920e-002
1.710550e+003,4.821891e-002
1.712479e+003,4.705135e-002
1.714407e+003,4.604740e-002
1.716335e+003,4.516366e-002
1.718264e+003,4.411769e-002
1.720192e+003,4.294788e-002
1.722121e+003,4.167216e-002
1.724049e+003,4.000165e-002
1.725978e+003,3.817052e-002
1.727906e+003,3.621855e-002
1.729835e+003,3.446176e-002
1.731763e+003,3.265807e-002
1.733692e+003,3.070130e-002
1.735620e+003,2.883494e-002
1.737549e+003,2.744349e-002
1.739477e+003,2.603667e-002
1.741406e+003,2.462202e-002
1.743334e+003,2.334609e-002
1.745262e+003,2.236639e-002
1.747191e+003,2.135638e-002
1.749119e+003,2.028595e-002
1.751048e+003,1.936785e-002
1.752976e+003,1.864337e-002
1.754905e+003,1.801184e-002
1.756833e+003,1.731965e-002
1.758762e+003,1.678850e-002
1.760690e+003,1.630785e-002
1.762619e+003,1.573530e-002
1.764547e+003,1.509749e-002
1.766476e+003,1.437646e-002
1.768404e+003,1.385567e-002
1.770333e+003,1.354620e-002
1.772261e+003,1.333506e-002
1.774189e+003,1.289261e-002
1.776118e+003,1.259174e-002
1.778046e+003,1.223766e-002
1.779975e+003,1.176137e-002
1.781903e+003,1.127186e-002
1.783832e+003,1.100130e-002
1.785760e+003,1.067402e-002
1.787689e+003,1.029446e-002
1.789617e+003,9.932556e-003
1.791546e+003,9.709989e-003
1.793474e+003,9.523129e-003
1.795403e+003,9.365296e-003
1.797331e+003,9.217877e-003
1.799260e+003,8.799925e-003
1.801188e+003,8.551442e-003
1.803116e+003,8.677609e-003
1.805045e+003,8.580336e-003
1.806973e+003,8.490349e-003
1.808902e+003,8.394604e-003
1.810830e+003,8.079814e-003
1.812759e+003,7.822667e-003
1.814687e+003,7.919704e-003
1.816616e+003,7.882014e-003
1.818544e+003,7.715973e-003
1.820473e+003,7.420077e-003
1.822401e+003,7.282380e-003
1.824330e+003,7.388564e-003
1.826258e+003,7.520799e-003
1.828187e+003,7.476503e-003
1.830115e+003,7.425537e-003
1.832043e+003,7.201925e-003
1.833972e+003,6.881064e-003
1.835900e+003,6.918869e-003
1.837829e+003,6.983412e-003
1.839757e+003,6.712141e-003
1.841686e+003,6.618402e-003
1.843614e+003,6.771100e-003
1.845543e+003,6.824749e-003
1.847471e+003,6.613658e-003
1.849400e+003,6.602523e-003
1.851328e+003,6.781096e-003
1.853257e+003,6.734317e-003
1.855185e+003,6.773591e-003
1.857114e+003,6.802468e-003
1.859042e+003,6.778134e-003
1.860970e+003,6.645082e-003
1.862899e+003,6.455029e-003
1.864827e+003,6.405024e-003
1.866756e+003,6.387405e-003
1.868684e+003,6.412758e-003
1.870613e+003,6.278271e-003
1.872541e+003,6.305233e-003
1.874470e+003,6.280423e-003
1.876398e+003,6.238438e-003
1.878327e+003,6.281869e-003
1.880255e+003,6.357816e-003
1.882183e+003,6.257026e-003
1.884112e+003,6.222808e-003
1.886040e+003,6.316495e-003
1.887969e+003,6.247547e-003
1.889897e+003,6.201297e-003
1.891826e+003,6.191214e-003
1.893754e+003,6.083608e-003
1.895683e+003,6.225799e-003
1.897611e+003,6.410371e-003
1.899540e+003,6.403511e-003
1.901468e+003,6.440670e-003
1.903397e+003,6.477260e-003
1.905325e+003,6.655444e-003
1.907254e+003,6.668802e-003
1.909182e+003,6.415617e-003
1.911110e+003,6.413195e-003
1.913039e+003,6.353814e-003
1.914967e+003,6.300291e-003
1.916896e+003,6.621161e-003
1.918824e+003,6.710324e-003
1.920753e+003,6.638521e-003
1.922681e+003,6.661635e-003
1.924610e+003,6.486710e-003
1.926538e+003,6.495152e-003
1.928467e+003,6.627856e-003
1.930395e+003,6.727385e-003
1.932324e+003,6.711064e-003
1.934252e+003,6.596064e-003
1.936181e+003,6.553207e-003
1.938109e+003,6.611674e-003
1.940037e+003,6.781432e-003
1.941966e+003,6.781062e-003
1.943894e+003,6.735394e-003
1.945823e+003,6.773725e-003
1.947751e+003,6.919139e-003
1.949680e+003,7.036245e-003
1.951608e+003,7.209067e-003
1.953537e+003,7.349976e-003
1.955465e+003,7.285783e-003
1.957394e+003,7.184341e-003
1.959322e+003,7.218500e-003
1.961251e+003,7.187979e-003
1.963179e+003,7.390350e-003
1.965108e+003,7.542646e-003
1.967036e+003,7.550602e-003
1.968964e+003,7.471885e-003
1.970893e+003,7.521574e-003
1.972821e+003,7.494605e-003
1.974750e+003,7.711049e-003
1.976678e+003,8.121066e-003
1.978607e+003,8.317219e-003
1.980535e+003,8.166846e-003
1.982464e+003,8.220769e-003
1.984392e+003,8.375788e-003
1.986321e+003,8.465887e-003
1.988249e+003,8.424940e-003
1.990178e+003,8.358493e-003
1.992106e+003,8.577700e-003
1.994035e+003,8.840333e-003
1.995963e+003,8.859169e-003
1.997891e+003,8.870700e-003
1.999820e+003,8.984410e-003
2.001748e+003,9.003658e-003
2.003677e+003,9.028083e-003
2.005605e+003,9.150633e-003
2.007534e+003,9.239268e-003
2.009462e+003,9.310554e-003
2.011391e+003,9.340751e-003
2.013319e+003,9.413104e-003
2.015248e+003,9.572072e-003
2.017176e+003,9.525466e-003
2.019105e+003,9.408702e-003
2.021033e+003,9.497999e-003
2.022962e+003,9.834900e-003
2.024890e+003,1.003152e-002
2.026818e+003,1.010718e-002
2.028747e+003,1.031621e-002
2.030675e+003,1.061673e-002
2.032604e+003,1.053664e-002
2.034532e+003,1.044275e-002
2.036461e+003,1.040708e-002
2.038389e+003,1.037121e-002
2.040318e+003,1.046590e-002
2.042246e+003,1.069314e-002
2.044175e+003,1.094455e-002
2.046103e+003,1.105143e-002
2.048032e+003,1.101870e-002
2.049960e+003,1.104993e-002
2.051889e+003,1.099617e-002
2.053817e+003,1.073953e-002
2.055746e+003,1.080281e-002
2.057674e+003,1.111818e-002
2.059603e+003,1.126108e-002
2.061531e+003,1.120270e-002
2.063459e+003,1.128727e-002
2.065388e+003,1.149666e-002
2.067316e+003,1.160800e-002
2.069245e+003,1.159673e-002
2.071173e+003,1.153647e-002
2.073102e+003,1.151724e-002
2.075030e+003,1.172712e-002
2.076959e+003,1.194838e-002
2.078887e+003,1.187162e-002
2.080816e+003,1.177066e-002
2.082744e+003,1.155777e-002
2.084673e+003,1.196847e-002
2.086601e+003,1.228490e-002
2.088530e+003,1.210412e-002
2.090458e+003,1.195924e-002
2.092386e+003,1.203333e-002
2.094315e+003,1.224376e-002
2.096243e+003,1.236647e-002
2.098172e+003,1.238444e-002
2.100100e+003,1.216549e-002
2.102029e+003,1.201149e-002
2.103957e+003,1.230392e-002
2.105886e+003,1.253430e-002
2.107814e+003,1.230849e-002
2.109743e+003,1.222918e-002
2.111671e+003,1.241107e-002
2.113600e+003,1.252990e-002
2.115528e+003,1.228316e-002
2.117457e+003,1.223405e-002
2.119385e+003,1.239088e-002
2.121313e+003,1.247681e-002
2.123242e+003,1.235454e-002
2.125170e+003,1.227171e-002
2.127099e+003,1.243957e-002
2.129027e+003,1.232741e-002
2.130956e+003,1.212082e-002
2.132884e+003,1.229312e-002
2.134813e+003,1.222574e-002
2.136741e+003,1.210760e-002
2.138670e+003,1.221445e-002
2.140598e+003,1.229393e-002
2.142527e+003,1.207884e-002
2.144455e+003,1.168121e-002
2.146384e+003,1.171487e-002
2.148312e+003,1.181911e-002
2.150240e+003,1.162290e-002
2.152169e+003,1.178650e-002
2.154097e+003,1.197937e-002
2.156026e+003,1.209387e-002
2.157954e+003,1.211812e-002
2.159883e+003,1.199882e-002
2.161811e+003,1.185391e-002
2.163740e+003,1.175208e-002
2.165668e+003,1.185006e-002
2.167597e+003,1.184247e-002
2.169525e+003,1.158418e-002
2.171454e+003,1.143692e-002
2.173382e+003,1.137277e-002
2.175311e+003,1.127876e-002
2.177239e+003,1.102023e-002
2.179167e+003,1.089429e-002
2.181096e+003,1.104069e-002
2.183024e+003,1.092912e-002
2.184953e+003,1.081116e-002
2.186881e+003,1.066611e-002
2.188810e+003,1.063480e-002
2.190738e+003,1.082604e-002
2.192667e+003,1.063093e-002
2.194595e+003,1.017898e-002
2.196524e+003,1.001562e-002
2.198452e+003,1.031611e-002
2.200381e+003,1.035007e-002
2.202309e+003,1.029843e-002
2.204238e+003,1.011834e-002
2.206166e+003,9.693725e-003
2.208094e+003,9.495019e-003
2.210023e+003,9.391874e-003
2.211951e+003,9.333980e-003
2.213880e+003,9.422009e-003
2.215808e+003,9.413205e-003
2.217737e+003,9.174862e-003
2.219665e+003,9.035864e-003
2.221594e+003,9.168500e-003
2.223522e+003,9.310283e-003
2.225451e+003,9.220686e-003
2.227379e+003,8.995810e-003
2.229308e+003,8.940201e-003
2.231236e+003,8.751813e-003
2.233165e+003,8.520625e-003
2.235093e+003,8.508663e-003
2.237021e+003,8.610144e-003
2.238950e+003,8.648000e-003
2.240878e+003,8.384233e-003
2.242807e+003,8.063138e-003
2.244735e+003,8.079679e-003
2.246664e+003,8.271390e-003
2.248592e+003,8.242414e-003
2.250521e+003,7.945215e-003
2.252449e+003,7.749196e-003
2.254378e+003,8.050582e-003
2.256306e+003,8.013184e-003
2.258235e+003,7.663596e-003
2.260163e+003,7.468615e-003
2.262092e+003,7.395709e-003
2.264020e+003,7.172921e-003
2.265948e+003,7.100671e-003
2.267877e+003,7.045944e-003
2.269805e+003,6.942706e-003
2.271734e+003,6.771201e-003
2.273662e+003,6.635997e-003
2.275591e+003,6.660727e-003
2.277519e+003,6.611573e-003
2.279448e+003,6.598553e-003
2.281376e+003,6.486845e-003
2.283305e+003,6.460646e-003
2.285233e+003,6.395710e-003
2.287162e+003,6.461218e-003
2.289090e+003,6.719813e-003
2.291019e+003,6.417197e-003
2.292947e+003,6.136097e-003
2.294875e+003,6.178576e-003
2.296804e+003,6.116001e-003
2.298732e+003,5.963903e-003
2.300661e+003,5.724859e-003
2.302589e+003,5.836909e-003
2.304518e+003,6.131527e-003
2.306446e+003,6.038853e-003
2.308375e+003,5.832040e-003
2.310303e+003,5.552459e-003
2.312232e+003,5.530545e-003
2.314160e+003,5.698740e-003
2.316089e+003,5.878386e-003
2.318017e+003,5.804873e-003
2.319946e+003,5.627876e-003
2.321874e+003,5.454306e-003
2.323802e+003,5.424009e-003
2.325731e+003,5.387776e-003
2.327659e+003,5.410086e-003
2.329588e+003,5.411193e-003
2.331516e+003,5.182312e-003
2.333445e+003,4.861900e-003
2.335373e+003,5.042473e-003
2.337302e+003,4.955495e-003
2.339230e+003,4.792211e-003
2.341159e+003,4.775795e-003
2.343087e+003,4.708598e-003
2.345016e+003,4.791440e-003
2.346944e+003,4.954925e-003
2.348873e+003,4.928148e-003
2.350801e+003,4.855667e-003
2.352729e+003,4.817237e-003
2.354658e+003,4.684282e-003
2.356586e+003,4.787286e-003
2.358515e+003,4.635819e-003
2.360443e+003,4.533219e-003
2.362372e+003,4.581804e-003
2.364300e+003,4.329297e-003
2.366229e+003,4.319893e-003
2.368157e+003,4.500241e-003
2.370086e+003,4.242829e-003
2.372014e+003,3.851030e-003
2.373943e+003,3.888974e-003
2.375871e+003,3.781402e-003
2.377800e+003,3.644787e-003
2.379728e+003,3.564770e-003
2.381656e+003,3.467132e-003
2.383585e+003,3.331350e-003
2.385513e+003,3.386312e-003
2.387442e+003,3.374358e-003
2.389370e+003,3.129727e-003
2.391299e+003,2.987178e-003
2.393227e+003,3.164203e-003
2.395156e+003,3.373924e-003
2.397084e+003,3.387815e-003
2.399013e+003,3.031786e-003
2.400941e+003,2.977736e-003
2.402870e+003,3.038493e-003
2.404798e+003,3.050471e-003
2.406727e+003,3.052707e-003
2.408655e+003,2.991415e-003
2.410583e+003,2.977069e-003
2.412512e+003,3.089113e-003
2.414440e+003,3.032587e-003
2.416369e+003,2.689384e-003
2.418297e+003,2.419648e-003
2.420226e+003,2.495589e-003
2.422154e+003,2.764672e-003
2.424083e+003,2.719224e-003
2.426011e+003,2.523483e-003
2.427940e+003,2.396325e-003
2.429868e+003,2.276699e-003
2.431797e+003,2.337091e-003
2.433725e+003,2.314239e-003
2.435654e+003,2.045136e-003
2.437582e+003,2.227872e-003
2.439510e+003,2.449870e-003
2.441439e+003,2.318037e-003
2.443367e+003,2.249188e-003
2.445296e+003,2.316738e-003
2.447224e+003,2.151012e-003
2.449153e+003,2.337191e-003
2.451081e+003,2.519684e-003
2.453010e+003,2.113020e-003
2.454938e+003,1.888233e-003
2.456867e+003,1.903541e-003
2.458795e+003,1.962916e-003
2.460724e+003,1.941315e-003
2.462652e+003,1.942780e-003
2.464581e+003,1.968808e-003
2.466509e+003,2.145418e-003
2.468438e+003,2.192604e-003
2.470366e+003,1.960320e-003
2.472294e+003,1.969407e-003
2.474223e+003,2.139757e-003
2.476151e+003,2.112188e-003
2.478080e+003,1.973334e-003
2.480008e+003,2.082223e-003
2.481937e+003,2.154542e-003
2.483865e+003,2.167395e-003
2.485794e+003,2.270471e-003
2.487722e+003,2.093010e-003
2.489651e+003,1.799189e-003
2.491579e+003,1.532333e-003
2.493508e+003,1.482393e-003
2.495436e+003,1.566882e-003
2.497365e+003,1.615037e-003
2.499293e+003,1.547828e-003
2.501221e+003,1.436647e-003
2.503150e+003,1.695261e-003
2.505078e+003,1.698255e-003
2.507007e+003,1.503738e-003
2.508935e+003,1.539216e-003
2.510864e+003,1.616766e-003
2.512792e+003,1.895754e-003
2.514721e+003,1.890829e-003
2.516649e+003,1.705739e-003
2.518578e+003,1.644703e-003
2.520506e+003,1.865305e-003
2.522435e+003,1.798224e-003
2.524363e+003,1.522724e-003
2.526292e+003,1.661466e-003
2.528220e+003,1.600869e-003
2.530148e+003,1.508692e-003
2.532077e+003,1.637852e-003
2.534005e+003,1.585571e-003
2.535934e+003,1.532898e-003
2.537862e+003,1.372325e-003
2.539791e+003,1.083110e-003
2.541719e+003,1.449379e-003
2.543648e+003,1.564920e-003
2.545576e+003,1.431594e-003
2.547505e+003,1.256935e-003
2.549433e+003,1.109152e-003
2.551362e+003,1.086066e-003
2.553290e+003,1.092211e-003
2.555219e+003,1.331044e-003
2.557147e+003,1.646865e-003
2.559075e+003,1.629604e-003
2.561004e+003,1.539848e-003
2.562932e+003,1.287507e-003
2.564861e+003,1.059659e-003
2.566789e+003,1.226929e-003
2.568718e+003,1.293855e-003
2.570646e+003,1.127822e-003
2.572575e+003,1.222244e-003
2.574503e+003,1.196394e-003
2.576432e+003,1.137688e-003
2.578360e+003,1.557239e-003
2.580289e+003,1.565585e-003
2.582217e+003,1.209019e-003
2.584146e+003,1.213040e-003
2.586074e+003,1.238359e-003
2.588002e+003,1.054146e-003
2.589931e+003,1.037140e-003
2.591859e+003,9.718144e-004
2.593788e+003,1.070853e-003
2.595716e+003,1.236930e-003
2.597645e+003,1.376347e-003
2.599573e+003,1.390607e-003
2.601502e+003,1.233109e-003
2.603430e+003,1.309408e-003
2.605359e+003,1.410185e-003
2.607287e+003,1.177323e-003
2.609216e+003,9.706522e-004
2.611144e+003,1.074938e-003
2.613073e+003,1.285580e-003
2.615001e+003,1.166658e-003
2.616929e+003,9.661691e-004
2.618858e+003,9.578672e-004
2.620786e+003,1.288405e-003
2.622715e+003,1.406496e-003
2.624643e+003,1.069690e-003
2.626572e+003,8.009251e-004
2.628500e+003,1.030763e-003
2.630429e+003,1.213538e-003
2.632357e+003,1.218988e-003
2.634286e+003,1.320807e-003
2.636214e+003,1.321672e-003
2.638143e+003,1.625147e-003
2.640071e+003,1.694662e-003
2.642000e+003,1.349357e-003
2.643928e+003,1.259460e-003
2.645856e+003,1.462212e-003
2.647785e+003,1.633894e-003
2.649713e+003,1.473915e-003
2.651642e+003,1.157621e-003
2.653570e+003,1.090251e-003
2.655499e+003,1.476109e-003
2.657427e+003,1.859648e-003
2.659356e+003,1.656378e-003
2.661284e+003,1.579985e-003
2.663213e+003,1.504835e-003
2.665141e+003,1.197390e-003
2.667070e+003,1.234737e-003
2.668998e+003,1.434885e-003
2.670927e+003,1.479467e-003
2.672855e+003,1.541078e-003
2.674783e+003,1.618795e-003
2.676712e+003,1.598408e-003
2.678640e+003,1.484886e-003
2.680569e+003,1.623817e-003
2.682497e+003,1.706571e-003
2.684426e+003,1.573234e-003
2.686354e+003,1.576726e-003
2.688283e+003,1.730489e-003
2.690211e+003,1.587234e-003
2.692140e+003,1.594052e-003
2.694068e+003,1.792402e-003
2.695997e+003,2.069771e-003
2.697925e+003,2.362410e-003
2.699854e+003,2.368573e-003
2.701782e+003,2.347785e-003
2.703710e+003,2.197266e-003
2.705639e+003,2.153110e-003
2.707567e+003,2.192104e-003
2.709496e+003,2.076230e-003
2.711424e+003,1.882842e-003
2.713353e+003,1.997533e-003
2.715281e+003,2.354814e-003
2.717210e+003,2.706788e-003
2.719138e+003,2.678315e-003
2.721067e+003,2.382632e-003
2.722995e+003,2.237630e-003
2.724924e+003,2.408087e-003
2.726852e+003,2.831268e-003
2.728781e+003,2.816427e-003
2.730709e+003,2.893338e-003
2.732637e+003,2.777110e-003
2.734566e+003,2.799419e-003
2.736494e+003,2.924594e-003
2.738423e+003,2.905180e-003
2.740351e+003,2.893405e-003
2.742280e+003,3.035056e-003
2.744208e+003,3.471374e-003
2.746137e+003,3.663265e-003
2.748065e+003,3.436372e-003
2.749994e+003,3.281136e-003
2.751922e+003,3.553746e-003
2.753851e+003,3.872726e-003
2.755779e+003,3.592900e-003
2.757708e+003,3.177954e-003
2.759636e+003,3.605729e-003
2.761564e+003,3.945477e-003
2.763493e+003,3.635732e-003
2.765421e+003,3.682613e-003
2.767350e+003,3.907696e-003
2.769278e+003,4.075631e-003
2.771207e+003,4.324511e-003
2.773135e+003,4.481392e-003
2.775064e+003,4.413974e-003
2.776992e+003,4.428334e-003
2.778921e+003,4.568644e-003
2.780849e+003,4.735630e-003
2.782778e+003,4.755494e-003
2.784706e+003,5.022193e-003
2.786635e+003,5.064296e-003
2.788563e+003,4.985860e-003
2.790491e+003,5.310053e-003
2.792420e+003,5.525779e-003
2.794348e+003,5.864078e-003
2.796277e+003,6.218774e-003
2.798205e+003,5.918052e-003
2.800134e+003,5.783617e-003
2.802062e+003,5.984764e-003
2.803991e+003,6.264388e-003
2.805919e+003,6.486307e-003
2.807848e+003,6.496531e-003
2.809776e+003,6.731894e-003
2.811705e+003,6.853192e-003
2.813633e+003,7.014963e-003
2.815562e+003,7.157695e-003
2.817490e+003,7.379296e-003
2.819418e+003,7.702043e-003
2.821347e+003,7.993508e-003
2.823275e+003,8.269059e-003
2.825204e+003,8.307661e-003
2.827132e+003,8.377106e-003
2.829061e+003,8.639009e-003
2.830989e+003,9.012791e-003
2.832918e+003,9.731539e-003
2.834846e+003,1.011308e-002
2.836775e+003,1.026186e-002
2.838703e+003,1.020201e-002
2.840632e+003,1.040077e-002
2.842560e+003,1.067965e-002
2.844489e+003,1.046583e-002
2.846417e+003,1.032272e-002
2.848345e+003,1.020056e-002
2.850274e+003,1.037084e-002
2.852202e+003,1.043189e-002
2.854131e+003,1.064271e-002
2.856059e+003,1.060407e-002
2.857988e+003,1.100959e-002
2.859916e+003,1.161555e-002
2.861845e+003,1.207441e-002
2.863773e+003,1.216078e-002
2.865702e+003,1.230897e-002
2.867630e+003,1.276225e-002
2.869558e+003,1.260699e-002
2.871487e+003,1.257956e-002
2.873415e+003,1.285463e-002
2.875344e+003,1.341201e-002
2.877272e+003,1.380679e-002
2.879201e+003,1.383795e-002
2.881129e+003,1.449625e-002
2.883058e+003,1.529679e-002
2.884986e+003,1.505221e-002
2.886915e+003,1.494036e-002
2.888843e+003,1.559298e-002
2.890771e+003,1.595685e-002
2.892700e+003,1.607460e-002
2.894628e+003,1.615379e-002
2.896557e+003,1.653734e-002
2.898485e+003,1.708699e-002
2.900414e+003,1.736245e-002
2.902342e+003,1.731317e-002
2.904271e+003,1.773798e-002
2.906199e+003,1.799164e-002
2.908128e+003,1.834252e-002
2.910056e+003,1.901447e-002
2.911985e+003,1.936352e-002
2.913913e+003,1.950971e-002
2.915842e+003,1.982176e-002
2.917770e+003,1.959210e-002
2.919698e+003,1.981278e-002
2.921627e+003,2.027813e-002
2.923555e+003,2.069741e-002
2.925484e+003,2.135061e-002
2.927412e+003,2.200725e-002
2.929341e+003,2.236252e-002
2.931269e+003,2.270707e-002
2.933198e+003,2.324862e-002
2.935126e+003,2.380398e-002
2.937055e+003,2.419431e-002
2.938983e+003,2.456928e-002
2.940912e+003,2.487927e-002
2.942840e+003,2.541627e-002
2.944769e+003,2.600884e-002
2.946697e+003,2.695404e-002
2.948625e+003,2.764154e-002
2.950554e+003,2.811433e-002
2.952482e+003,2.802851e-002
2.954411e+003,2.810026e-002
2.956339e+003,2.835110e-002
2.958268e+003,2.870681e-002
2.960196e+003,2.881585e-002
2.962125e+003,2.872511e-002
2.964053e+003,2.906788e-002
2.965982e+003,2.980168e-002
2.967910e+003,3.035994e-002
2.969839e+003,3.100367e-002
2.971767e+003,3.155094e-002
2.973696e+003,3.197087e-002
2.975624e+003,3.256824e-002
2.977552e+003,3.341378e-002
2.979481e+003,3.414005e-002
2.981409e+003,3.443500e-002
2.983338e+003,3.460394e-002
2.985266e+003,3.521735e-002
2.987195e+003,3.572462e-002
2.989123e+003,3.640782e-002
2.991052e+003,3.688528e-002
2.992980e+003,3.732748e-002
2.994909e+003,3.786116e-002
2.996837e+003,3.833751e-002
2.998766e+003,3.934412e-002
3.000694e+003,4.009881e-002
3.002623e+003,4.056704e-002
3.004551e+003,4.095369e-002
3.006479e+003,4.126817e-002
3.008408e+003,4.200888e-002
3.010336e+003,4.287148e-002
3.012265e+003,4.354360e-002
3.014193e+003,4.426952e-002
3.016122e+003,4.472189e-002
3.018050e+003,4.552491e-002
3.019979e+003,4.665573e-002
3.021907e+003,4.753427e-002
3.023836e+003,4.809575e-002
3.025764e+003,4.866003e-002
3.027693e+003,4.967543e-002
3.029621e+003,5.058736e-002
3.031550e+003,5.152273e-002
3.033478e+003,5.260765e-002
3.035406e+003,5.330199e-002
3.037335e+003,5.418441e-002
3.039263e+003,5.524319e-002
3.041192e+003,5.651215e-002
3.043120e+003,5.749201e-002
3.045049e+003,5.831061e-002
3.046977e+003,5.947905e-002
3.048906e+003,6.070418e-002
3.050834e+003,6.190881e-002
3.052763e+003,6.324724e-002
3.054691e+003,6.432181e-002
3.056620e+003,6.539626e-002
3.058548e+003,6.669134e-002
3.060477e+003,6.802694e-002
3.062405e+003,6.900659e-002
3.064333e+003,6.995798e-002
3.066262e+003,7.098608e-002
3.068190e+003,7.249505e-002
3.070119e+003,7.380742e-002
3.072047e+003,7.492359e-002
3.073976e+003,7.639907e-002
3.075904e+003,7.777772e-002
3.077833e+003,7.849336e-002
3.079761e+003,7.982182e-002
3.081690e+003,8.216882e-002
3.083618e+003,8.368436e-002
3.085547e+003,8.462551e-002
3.087475e+003,8.601990e-002
3.089404e+003,8.769722e-002
3.091332e+003,8.918187e-002
3.093260e+003,9.046390e-002
3.095189e+003,9.186004e-002
3.097117e+003,9.324355e-002
3.099046e+003,9.511166e-002
3.100974e+003,9.694546e-002
3.102903e+003,9.810913e-002
3.104831e+003,1.000679e-001
3.106760e+003,1.020004e-001
3.108688e+003,1.033600e-001
3.110617e+003,1.047274e-001
3.112545e+003,1.064674e-001
3.114474e+003,1.083374e-001
3.116402e+003,1.104642e-001
3.118331e+003,1.118685e-001
3.120259e+003,1.133617e-001
3.122188e+003,1.150997e-001
3.124116e+003,1.168666e-001
3.126044e+003,1.189670e-001
3.127973e+003,1.215572e-001
3.129901e+003,1.233122e-001
3.131830e+003,1.244075e-001
3.133758e+003,1.261480e-001
3.135687e+003,1.283626e-001
3.137615e+003,1.306233e-001
3.139544e+003,1.320931e-001
3.141472e+003,1.335487e-001
3.143401e+003,1.357937e-001
3.145329e+003,1.373657e-001
3.147258e+003,1.392356e-001
3.149186e+003,1.417816e-001
3.151115e+003,1.441003e-001
3.153043e+003,1.456337e-001
3.154971e+003,1.476310e-001
3.156900e+003,1.497258e-001
3.158828e+003,1.517695e-001
3.160757e+003,1.536885e-001
3.162685e+003,1.554532e-001
3.164614e+003,1.573016e-001
3.166542e+003,1.594278e-001
3.168471e+003,1.612285e-001
3.170399e+003,1.626642e-001
3.172328e+003,1.644139e-001
3.174256e+003,1.665307e-001
3.176185e+003,1.682499e-001
3.178113e+003,1.699760e-001
3.180042e+003,1.718984e-001
3.181970e+003,1.738405e-001
3.183898e+003,1.761551e-001
3.185827e+003,1.775953e-001
3.187755e+003,1.790209e-001
3.189684e+003,1.805759e-001
3.191612e+003,1.825603e-001
3.193541e+003,1.842885e-001
3.195469e+003,1.853812e-001
3.197398e+003,1.865052e-001
3.199326e+003,1.885730e-001
3.201255e+003,1.904096e-001
3.203183e+003,1.912429e-001
3.205112e+003,1.923769e-001
3.207040e+003,1.945794e-001
3.208969e+003,1.963381e-001
3.210897e+003,1.979170e-001
3.212825e+003,1.991845e-001
3.214754e+003,2.000710e-001
3.216682e+003,2.009926e-001
3.218611e+003,2.022989e-001
3.220539e+003,2.030062e-001
3.222468e+003,2.038034e-001
3.224396e+003,2.049835e-001
3.226325e+003,2.066703e-001
3.228253e+003,2.067950e-001
3.230182e+003,2.070992e-001
3.232110e+003,2.083514e-001
3.234039e+003,2.093251e-001
3.235967e+003,2.102729e-001
3.237896e+003,2.113574e-001
3.239824e+003,2.123228e-001
3.241752e+003,2.128605e-001
3.243681e+003,2.133402e-001
3.245609e+003,2.144745e-001
3.247538e+003,2.149432e-001
3.249466e+003,2.144499e-001
3.251395e+003,2.143182e-001
3.253323e+003,2.144088e-001
3.255252e+003,2.153399e-001
3.257180e+003,2.158944e-001
3.259109e+003,2.161690e-001
3.261037e+003,2.176622e-001
3.262966e+003,2.178843e-001
3.264894e+003,2.173202e-001
3.266823e+003,2.169449e-001
3.268751e+003,2.166860e-001
3.270679e+003,2.172758e-001
3.272608e+003,2.179931e-001
3.274536e+003,2.181613e-001
3.276465e+003,2.186971e-001
3.278393e+003,2.192378e-001
3.280322e+003,2.188170e-001
3.282250e+003,2.185125e-001
3.284179e+003,2.190450e-001
3.286107e+003,2.193810e-001
3.288036e+003,2.193431e-001
3.289964e+003,2.189693e-001
3.291893e+003,2.183970e-001
3.293821e+003,2.188719e-001
3.295750e+003,2.197048e-001
3.297678e+003,2.197700e-001
3.299606e+003,2.192894e-001
3.301535e+003,2.199872e-001
3.303463e+003,2.192697e-001
3.305392e+003,2.196271e-001
3.307320e+003,2.208110e-001
3.309249e+003,2.213017e-001
3.311177e+003,2.211488e-001
3.313106e+003,2.208336e-001
3.315034e+003,2.204192e-001
3.316963e+003,2.199335e-001
3.318891e+003,2.196679e-001
3.320820e+003,2.199699e-001
3.322748e+003,2.208206e-001
3.324677e+003,2.210889e-001
3.326605e+003,2.218656e-001
3.328533e+003,2.227444e-001
3.330462e+003,2.228637e-001
3.332390e+003,2.223986e-001
3.334319e+003,2.221109e-001
3.336247e+003,2.220492e-001
3.338176e+003,2.218387e-001
3.340104e+003,2.218940e-001
3.342033e+003,2.222405e-001
3.343961e+003,2.218260e-001
3.345890e+003,2.220122e-001
3.347818e+003,2.216460e-001
3.349747e+003,2.206202e-001
3.351675e+003,2.205912e-001
3.353604e+003,2.211570e-001
3.355532e+003,2.216944e-001
3.357460e+003,2.215263e-001
3.359389e+003,2.213499e-001
3.361317e+003,2.209353e-001
3.363246e+003,2.204430e-001
3.365174e+003,2.197382e-001
3.367103e+003,2.193434e-001
3.369031e+003,2.185185e-001
3.370960e+003,2.174154e-001
3.372888e+003,2.172303e-001
3.374817e+003,2.170633e-001
3.376745e+003,2.166119e-001
3.378674e+003,2.162298e-001
3.380602e+003,2.164417e-001
3.382531e+003,2.156413e-001
3.384459e+003,2.148629e-001
3.386387e+003,2.138793e-001
3.388316e+003,2.128192e-001
3.390244e+003,2.119344e-001
3.392173e+003,2.105518e-001
3.394101e+003,2.093688e-001
3.396030e+003,2.083913e-001
3.397958e+003,2.083576e-001
3.399887e+003,2.081884e-001
3.401815e+003,2.065411e-001
3.403744e+003,2.055231e-001
3.405672e+003,2.041536e-001
3.407601e+003,2.024851e-001
3.409529e+003,2.016440e-001
3.411458e+003,1.999764e-001
3.413386e+003,1.983472e-001
3.415314e+003,1.969769e-001
3.417243e+003,1.957048e-001
3.419171e+003,1.938609e-001
3.421100e+003,1.923952e-001
3.423028e+003,1.923275e-001
3.424957e+003,1.914743e-001
3.426885e+003,1.892387e-001
3.428814e+003,1.873915e-001
3.430742e+003,1.859235e-001
3.432671e+003,1.846209e-001
3.434599e+003,1.832037e-001
3.436528e+003,1.814474e-001
3.438456e+003,1.800561e-001
3.440385e+003,1.784236e-001
3.442313e+003,1.769729e-001
3.444241e+003,1.755707e-001
3.446170e+003,1.742584e-001
3.448098e+003,1.733839e-001
3.450027e+003,1.722154e-001
3.451955e+003,1.702765e-001
3.453884e+003,1.684611e-001
3.455812e+003,1.660707e-001
3.457741e+003,1.654670e-001
3.459669e+003,1.645426e-001
3.461598e+003,1.626528e-001
3.463526e+003,1.609976e-001
3.465455e+003,1.587724e-001
3.467383e+003,1.568238e-001
3.469312e+003,1.556396e-001
3.471240e+003,1.543015e-001
3.473168e+003,1.519951e-001
3.475097e+003,1.505161e-001
3.477025e+003,1.501276e-001
3.478954e+003,1.500183e-001
3.480882e+003,1.482462e-001
3.482811e+003,1.460313e-001
3.484739e+003,1.446988e-001
3.486668e+003,1.440820e-001
3.488596e+003,1.421906e-001
3.490525e+003,1.391425e-001
3.492453e+003,1.375170e-001
3.494382e+003,1.366507e-001
3.496310e+003,1.354093e-001
3.498239e+003,1.333068e-001
3.500167e+003,1.310087e-001
3.502095e+003,1.294153e-001
3.504024e+003,1.285433e-001
3.505952e+003,1.279733e-001
3.507881e+003,1.268955e-001
3.509809e+003,1.248481e-001
3.511738e+003,1.225011e-001
3.513666e+003,1.201034e-001
3.515595e+003,1.190524e-001
3.517523e+003,1.181812e-001
3.519452e+003,1.173628e-001
3.521380e+003,1.151358e-001
3.523309e+003,1.133154e-001
3.525237e+003,1.117047e-001
3.527166e+003,1.107020e-001
3.529094e+003,1.103834e-001
3.531022e+003,1.090486e-001
3.532951e+003,1.073693e-001
3.534879e+003,1.055206e-001
3.536808e+003,1.043367e-001
3.538736e+003,1.029586e-001
3.540665e+003,1.009392e-001
3.542593e+003,9.897868e-002
3.544522e+003,9.765704e-002
3.546450e+003,9.621368e-002
3.548379e+003,9.429493e-002
3.550307e+003,9.253991e-002
3.552236e+003,9.115381e-002
3.554164e+003,8.918911e-002
3.556093e+003,8.703245e-002
3.558021e+003,8.679689e-002
3.559949e+003,8.624034e-002
3.561878e+003,8.496405e-002
3.563806e+003,8.376475e-002
3.565735e+003,8.133368e-002
3.567663e+003,7.930614e-002
3.569592e+003,7.886585e-002
3.571520e+003,7.788133e-002
3.573449e+003,7.619830e-002
3.575377e+003,7.467352e-002
3.577306e+003,7.364463e-002
3.579234e+003,7.286011e-002
3.581163e+003,7.172133e-002
3.583091e+003,7.034721e-002
3.585020e+003,6.958862e-002
3.586948e+003,6.839146e-002
3.588876e+003,6.683666e-002
3.590805e+003,6.511105e-002
3.592733e+003,6.398930e-002
3.594662e+003,6.238598e-002
3.596590e+003,6.089508e-002
3.598519e+003,6.007438e-002
3.600447e+003,5.888343e-002
3.602376e+003,5.721689e-002
3.604304e+003,5.593589e-002
3.606233e+003,5.516102e-002
3.608161e+003,5.397869e-002
3.610090e+003,5.279757e-002
3.612018e+003,5.185557e-002
3.613947e+003,5.074340e-002
3.615875e+003,4.933728e-002
3.617803e+003,4.781549e-002
3.619732e+003,4.671974e-002
3.621660e+003,4.568942e-002
3.623589e+003,4.471943e-002
3.625517e+003,4.365149e-002
3.627446e+003,4.238312e-002
3.629374e+003,4.189498e-002
3.631303e+003,4.150038e-002
3.633231e+003,3.980188e-002
3.635160e+003,3.806550e-002
3.637088e+003,3.675285e-002
3.639017e+003,3.524886e-002
3.640945e+003,3.382116e-002
3.642874e+003,3.252693e-002
3.644802e+003,3.165592e-002
3.646730e+003,3.030341e-002
3.648659e+003,2.939809e-002
3.650587e+003,2.857073e-002
3.652516e+003,2.705481e-002
3.654444e+003,2.557158e-002
3.656373e+003,2.445352e-002
3.658301e+003,2.317278e-002
3.660230e+003,2.164065e-002
3.662158e+003,2.028299e-002
3.664087e+003,1.876205e-002
3.666015e+003,1.800090e-002
3.667944e+003,1.707297e-002
3.669872e+003,1.557440e-002
3.671801e+003,1.447583e-002
3.673729e+003,1.380050e-002
3.675657e+003,1.325614e-002
3.677586e+003,1.237217e-002
3.679514e+003,1.082845e-002
3.681443e+003,9.658218e-003
3.683371e+003,9.408804e-003
3.685300e+003,8.864376e-003
3.687228e+003,8.269295e-003
3.689157e+003,7.740426e-003
3.691085e+003,7.034191e-003
3.693014e+003,6.439459e-003
3.694942e+003,6.191684e-003
3.696871e+003,6.002670e-003
3.698799e+003,5.589511e-003
3.700728e+003,4.764740e-003
3.702656e+003,3.609037e-003
3.704584e+003,3.293689e-003
3.706513e+003,3.848456e-003
3.708441e+003,3.620964e-003
3.710370e+003,2.783179e-003
3.712298e+003,2.253684e-003
3.714227e+003,2.294986e-003
3.716155e+003,2.527316e-003
3.718084e+003,2.298417e-003
3.720012e+003,2.077961e-003
3.721941e+003,1.806675e-003
3.723869e+003,1.714654e-003
3.725798e+003,2.157339e-003
3.727726e+003,2.263276e-003
3.729655e+003,1.276674e-003
3.731583e+003,1.169914e-003
3.733511e+003,1.761993e-003
3.735440e+003,1.881977e-003
3.737368e+003,1.577357e-003
3.739297e+003,9.944631e-004
3.741225e+003,4.210063e-004
3.743154e+003,-2.927399e-004
3.745082e+003,-4.902395e-004
3.747011e+003,-5.536481e-004
3.748939e+003,-2.823759e-004
3.750868e+003,-9.577994e-005
3.752796e+003,-4.793175e-004
3.754725e+003,-8.424106e-004
3.756653e+003,-1.198030e-003
3.758582e+003,-1.043825e-003
3.760510e+003,-9.231927e-004
3.762438e+003,-1.154709e-003
3.764367e+003,-1.063360e-003
3.766295e+003,-8.543156e-004
3.768224e+003,-1.424479e-003
3.770152e+003,-1.609284e-003
3.772081e+003,-1.991191e-003
3.774009e+003,-2.375069e-003
3.775938e+003,-2.279263e-003
3.777866e+003,-2.241818e-003
3.779795e+003,-1.804668e-003
3.781723e+003,-1.498582e-003
3.783652e+003,-2.222600e-003
3.785580e+003,-2.332656e-003
3.787509e+003,-2.181887e-003
3.789437e+003,-2.179974e-003
3.791365e+003,-2.228435e-003
3.793294e+003,-2.143510e-003
3.795222e+003,-2.272144e-003
3.797151e+003,-2.822905e-003
3.799079e+003,-2.715574e-003
3.801008e+003,-2.270100e-003
3.802936e+003,-2.656498e-003
3.804865e+003,-2.586249e-003
3.806793e+003,-2.266343e-003
3.808722e+003,-2.220128e-003
3.810650e+003,-2.379650e-003
3.812579e+003,-2.221117e-003
3.814507e+003,-2.560688e-003
3.816436e+003,-3.269983e-003
3.818364e+003,-2.896967e-003
3.820292e+003,-2.208062e-003
3.822221e+003,-2.099624e-003
3.824149e+003,-2.451909e-003
3.826078e+003,-3.072954e-003
3.828006e+003,-3.254888e-003
3.829935e+003,-2.993657e-003
3.831863e+003,-2.513780e-003
3.833792e+003,-3.016888e-003
3.835720e+003,-3.444011e-003
3.837649e+003,-3.330521e-003
3.839577e+003,-3.265247e-003
3.841506e+003,-2.715838e-003
3.843434e+003,-2.698945e-003
3.845363e+003,-2.829949e-003
3.847291e+003,-2.812239e-003
3.849219e+003,-2.758378e-003
3.851148e+003,-2.684687e-003
3.853076e+003,-2.721007e-003
3.855005e+003,-3.019422e-003
3.856933e+003,-3.195984e-003
3.858862e+003,-3.183979e-003
3.860790e+003,-3.325457e-003
3.862719e+003,-3.483028e-003
3.864647e+003,-3.103188e-003
3.866576e+003,-2.865500e-003
3.868504e+003,-2.780502e-003
3.870433e+003,-2.785671e-003
3.872361e+003,-3.305892e-003
3.874290e+003,-3.826378e-003
3.876218e+003,-3.490720e-003
3.878146e+003,-3.270706e-003
3.880075e+003,-3.519150e-003
3.882003e+003,-3.148355e-003
3.883932e+003,-3.284354e-003
3.885860e+003,-3.958388e-003
3.887789e+003,-4.105916e-003
3.889717e+003,-3.748598e-003
3.891646e+003,-3.289549e-003
3.893574e+003,-2.888870e-003
3.895503e+003,-3.128947e-003
3.897431e+003,-3.000468e-003
3.899360e+003,-3.089173e-003
3.901288e+003,-3.259953e-003
3.903217e+003,-3.491246e-003
3.905145e+003,-3.721660e-003
3.907073e+003,-3.316447e-003
3.909002e+003,-2.756468e-003
3.910930e+003,-3.037387e-003
3.912859e+003,-2.589180e-003
3.914787e+003,-2.246301e-003
3.916716e+003,-3.518624e-003
3.918644e+003,-4.323080e-003
3.920573e+003,-3.875804e-003
3.922501e+003,-3.828118e-003
3.924430e+003,-4.078738e-003
3.926358e+003,-3.306813e-003
3.928287e+003,-3.465903e-003
3.930215e+003,-4.127414e-003
3.932144e+003,-3.707403e-003
3.934072e+003,-3.240615e-003
3.936000e+003,-2.988293e-003
3.937929e+003,-3.223875e-003
3.939857e+003,-4.219335e-003
3.941786e+003,-4.559447e-003
3.943714e+003,-3.816754e-003
3.945643e+003,-3.359323e-003
3.947571e+003,-2.979737e-003
3.949500e+003,-3.268536e-003
3.951428e+003,-3.584419e-003
3.953357e+003,-3.435497e-003
3.955285e+003,-3.459526e-003
3.957214e+003,-3.396278e-003
3.959142e+003,-3.547645e-003
3.961071e+003,-3.722317e-003
3.962999e+003,-3.893176e-003
3.964927e+003,-3.936159e-003
3.966856e+003,-3.809758e-003
3.968784e+003,-3.767682e-003
3.970713e+003,-3.942037e-003
3.972641e+003,-4.026906e-003
3.974570e+003,-3.782431e-003
3.976498e+003,-3.331409e-003
3.978427e+003,-3.502750e-003
3.980355e+003,-3.777143e-003
3.982284e+003,-4.068596e-003
3.984212e+003,-4.046044e-003
3.986141e+003,-4.051855e-003
3.988069e+003,-4.404234e-003
3.989998e+003,-4.204011e-003
3.991926e+003,-3.474187e-003
3.993854e+003,-3.110590e-003
3.995783e+003,-3.525198e-003
3.997711e+003,-3.975461e-003
3.999640e+003,-4.127775e-003
4.001568e+003,0.000000e+000
