3.991927e+002,0.000000e+000
4.011211e+002,0.000000e+000
4.030496e+002,0.000000e+000
4.049781e+002,0.000000e+000
4.069065e+002,0.000000e+000
4.088350e+002,0.000000e+000
4.107635e+002,0.000000e+000
4.126919e+002,0.000000e+000
4.146204e+002,0.000000e+000
4.165489e+002,0.000000e+000
4.184773e+002,0.000000e+000
4.204058e+002,0.000000e+000
4.223343e+002,0.000000e+000
4.242627e+002,0.000000e+000
4.261912e+002,0.000000e+000
4.281197e+002,0.000000e+000
4.300481e+002,0.000000e+000
4.319766e+002,0.000000e+000
4.339051e+002,0.000000e+000
4.358335e+002,0.000000e+000
4.377620e+002,0.000000e+000
4.396905e+002,0.000000e+000
4.416189e+002,0.000000e+000
4.435474e+002,0.000000e+000
4.454759e+002,0.000000e+000
4.474043e+002,0.000000e+000
4.493328e+002,0.000000e+000
4.512613e+002,0.000000e+000
4.531897e+002,0.000000e+000
4.551182e+002,0.000000e+000
4.570467e+002,0.000000e+000
4.589751e+002,0.000000e+000
4.609036e+002,0.000000e+000
4.628321e+002,0.000000e+000
4.647605e+002,0.000000e+000
4.666890e+002,0.000000e+000
4.686175e+002,0.000000e+000
4.705459e+002,0.000000e+000
4.724744e+002,0.000000e+000
4.744029e+002,0.000000e+000
4.763313e+002,0.000000e+000
4.782598e+002,0.000000e+000
4.801883e+002,0.000000e+000
4.821167e+002,0.000000e+000
4.840452e+002,0.000000e+000
4.859737e+002,0.000000e+000
4.879021e+002,0.000000e+000
4.898306e+002,0.000000e+000
4.917591e+002,0.000000e+000
4.936875e+002,0.000000e+000
4.956160e+002,0.000000e+000
4.975445e+002,0.000000e+000
4.994729e+002,0.000000e+000
5.014014e+002,0.000000e+000
5.033299e+002,0.000000e+000
5.052583e+002,0.000000e+000
5.071868e+002,0.000000e+000
5.091153e+002,0.000000e+000
5.110437e+002,0.000000e+000
5.129722e+002,0.000000e+000
5.149006e+002,0.000000e+000
5.168291e+002,0.000000e+000
5.187576e+002,0.000000e+000
5.206860e+002,0.000000e+000
5.226145e+002,0.000000e+000
5.245430e+002,0.000000e+000
5.264714e+002,0.000000e+000
5.283999e+002,0.000000e+000
5.303284e+002,0.000000e+000
5.322568e+002,0.000000e+000
5.341853e+002,0.000000e+000
5.361138e+002,0.000000e+000
5.380422e+002,0.000000e+000
5.399707e+002,0.000000e+000
5.418992e+002,0.000000e+000
5.438276e+002,0.000000e+000
5.457561e+002,0.000000e+000
5.476846e+002,0.000000e+000
5.496130e+002,0.000000e+000
5.515415e+002,0.000000e+000
5.534700e+002,0.000000e+000
5.553984e+002,0.000000e+000
5.573269e+002,0.000000e+000
5.592554e+002,0.000000e+000
5.611838e+002,0.000000e+000
5.631123e+002,0.000000e+000
5.650408e+002,0.000000e+000
5.669692e+002,0.000000e+000
5.688977e+002,0.000000e+000
5.708262e+002,0.000000e+000
5.727546e+002,0.000000e+000
5.746831e+002,0.000000e+000
5.766116e+002,0.000000e+000
5.785400e+002,0.000000e+000
5.804685e+002,0.000000e+000
5.823970e+002,0.000000e+000
5.843254e+002,0.000000e+000
5.862539e+002,0.000000e+000
5.881824e+002,0.000000e+000
5.901108e+002,0.000000e+000
5.920393e+002,0.000000e+000
5.939678e+002,0.000000e+000
5.958962e+002,0.000000e+000
5.978247e+002,0.000000e+000
5.997532e+002,0.000000e+000
6.016816e+002,0.000000e+000
6.036101e+002,0.000000e+000
6.055386e+002,0.000000e+000
6.074670e+002,0.000000e+000
6.093955e+002,0.000000e+000
6.113240e+002,0.000000e+000
6.132524e+002,0.000000e+000
6.151809e+002,0.000000e+000
6.171094e+002,0.000000e+000
6.190378e+002,0.000000e+000
6.209663e+002,0.000000e+000
6.228948e+002,0.000000e+000
6.248232e+002,0.000000e+000
6.267517e+002,0.000000e+000
6.286802e+002,0.000000e+000
6.306086e+002,0.000000e+000
6.325371e+002,0.000000e+000
6.344656e+002,0.000000e+000
6.363940e+002,0.000000e+000
6.383225e+002,0.000000e+000
6.402510e+002,0.000000e+000
6.421794e+002,0.000000e+000
6.441079e+002,0.000000e+000
6.460364e+002,0.000000e+000
6.479648e+002,0.000000e+000
6.498933e+002,3.756398e-001
6.518218e+002,3.754137e-001
6.537502e+002,3.737091e-001
6.556787e+002,3.710768e-001
6.576072e+002,3.685509e-001
6.595356e+002,3.677289e-001
6.614641e+002,3.663116e-001
6.633926e+002,3.638463e-001
6.653210e+002,3.605875e-001
6.672495e+002,3.573635e-001
6.691780e+002,3.541929e-001
6.711064e+002,3.510425e-001
6.730349e+002,3.481449e-001
6.749634e+002,3.441067e-001
6.768918e+002,3.420231e-001
6.788203e+002,3.407929e-001
6.807488e+002,3.384992e-001
6.826772e+002,3.347601e-001
6.846057e+002,3.339037e-001
6.865342e+002,3.325707e-001
6.884626e+002,3.302954e-001
6.903911e+002,3.282782e-001
6.923196e+002,3.267538e-001
6.942480e+002,3.242096e-001
6.961765e+002,3.229480e-001
6.981050e+002,3.215903e-001
7.000334e+002,3.194362e-001
7.019619e+002,3.171510e-001
7.038904e+002,3.147360e-001
7.058188e+002,3.122111e-001
7.077473e+002,3.096429e-001
7.096758e+002,3.064351e-001
7.116042e+002,3.028479e-001
7.135327e+002,3.005778e-001
7.154612e+002,2.996188e-001
7.173896e+002,2.973432e-001
7.193181e+002,2.922495e-001
7.212466e+002,2.887943e-001
7.231750e+002,2.889538e-001
7.251035e+002,2.866606e-001
7.270320e+002,2.832201e-001
7.289604e+002,2.800321e-001
7.308889e+002,2.781639e-001
7.328174e+002,2.756920e-001
7.347458e+002,2.732027e-001
7.366743e+002,2.698666e-001
7.386028e+002,2.681323e-001
7.405313e+002,2.642901e-001
7.424597e+002,2.607424e-001
7.443882e+002,2.590002e-001
7.463167e+002,2.569087e-001
7.482451e+002,2.533890e-001
7.501736e+002,2.502807e-001
7.521021e+002,2.471915e-001
7.540305e+002,2.456549e-001
7.559590e+002,2.434527e-001
7.578875e+002,2.411678e-001
7.598159e+002,2.386489e-001
7.617444e+002,2.356206e-001
7.636729e+002,2.319128e-001
7.656013e+002,2.299172e-001
7.675298e+002,2.281200e-001
7.694583e+002,2.257713e-001
7.713867e+002,2.232583e-001
7.733152e+002,2.208192e-001
7.752437e+002,2.184141e-001
7.771721e+002,2.159864e-001
7.791006e+002,2.133761e-001
7.810291e+002,2.109122e-001
7.829575e+002,2.078148e-001
7.848860e+002,2.045572e-001
7.868145e+002,2.020990e-001
7.887429e+002,1.999690e-001
7.906714e+002,1.965089e-001
7.925999e+002,1.928574e-001
7.945283e+002,1.894708e-001
7.964568e+002,1.862575e-001
7.983853e+002,1.838348e-001
8.003137e+002,1.829413e-001
8.022422e+002,1.817331e-001
8.041707e+002,1.782981e-001
8.060991e+002,1.760564e-001
8.080276e+002,1.742126e-001
8.099561e+002,1.708528e-001
8.118845e+002,1.681472e-001
8.138130e+002,1.670422e-001
8.157415e+002,1.663881e-001
8.176699e+002,1.644500e-001
8.195984e+002,1.615902e-001
8.215269e+002,1.576874e-001
8.234553e+002,1.556301e-001
8.253838e+002,1.555845e-001
8.273123e+002,1.547608e-001
8.292407e+002,1.531949e-001
8.311692e+002,1.504175e-001
8.330977e+002,1.475611e-001
8.350261e+002,1.456327e-001
8.369546e+002,1.436479e-001
8.388831e+002,1.420101e-001
8.408115e+002,1.403499e-001
8.427400e+002,1.370738e-001
8.446685e+002,1.338821e-001
8.465969e+002,1.324946e-001
8.485254e+002,1.312424e-001
8.504539e+002,1.296535e-001
8.523823e+002,1.264626e-001
8.543108e+002,1.243690e-001
8.562393e+002,1.232387e-001
8.581677e+002,1.219503e-001
8.600962e+002,1.203979e-001
8.620247e+002,1.178201e-001
8.639531e+002,1.154113e-001
8.658816e+002,1.138302e-001
8.678101e+002,1.117807e-001
8.697385e+002,1.087146e-001
8.716670e+002,1.064395e-001
8.735955e+002,1.050661e-001
8.755239e+002,1.040877e-001
8.774524e+002,1.030179e-001
8.793809e+002,1.018339e-001
8.813093e+002,1.007252e-001
8.832378e+002,9.882844e-002
8.851663e+002,9.680242e-002
8.870947e+002,9.509562e-002
8.890232e+002,9.360224e-002
8.909517e+002,9.278936e-002
8.928801e+002,9.210934e-002
8.948086e+002,9.121144e-002
8.967371e+002,9.010877e-002
8.986655e+002,8.822211e-002
9.005940e+002,8.651967e-002
9.025225e+002,8.428342e-002
9.044509e+002,8.273047e-002
9.063794e+002,8.136337e-002
9.083079e+002,8.006024e-002
9.102363e+002,7.902019e-002
9.121648e+002,7.802419e-002
9.140933e+002,7.726929e-002
9.160217e+002,7.641100e-002
9.179502e+002,7.538453e-002
9.198787e+002,7.455108e-002
9.218071e+002,7.359874e-002
9.237356e+002,7.253475e-002
9.256641e+002,7.135109e-002
9.275925e+002,7.061296e-002
9.295210e+002,6.972422e-002
9.314495e+002,6.845968e-002
9.333779e+002,6.725986e-002
9.353064e+002,6.630602e-002
9.372349e+002,6.520233e-002
9.391633e+002,6.476098e-002
9.410918e+002,6.448299e-002
9.430203e+002,6.373893e-002
9.449487e+002,6.343222e-002
9.468772e+002,6.293770e-002
9.488057e+002,6.230619e-002
9.507341e+002,6.178506e-002
9.526626e+002,6.131970e-002
9.545911e+002,6.100645e-002
9.565195e+002,6.008766e-002
9.584480e+002,5.929658e-002
9.603765e+002,5.887508e-002
9.623049e+002,5.880572e-002
9.642334e+002,5.897496e-002
9.661619e+002,5.917346e-002
9.680903e+002,5.917886e-002
9.700188e+002,5.859036e-002
9.719473e+002,5.814825e-002
9.738757e+002,5.799498e-002
9.758042e+002,5.813606e-002
9.777327e+002,5.872902e-002
9.796611e+002,5.885467e-002
9.815896e+002,5.836847e-002
9.835181e+002,5.840592e-002
9.854465e+002,5.888187e-002
9.873750e+002,5.958135e-002
9.893035e+002,6.040630e-002
9.912319e+002,6.050387e-002
9.931604e+002,6.100321e-002
9.950889e+002,6.226125e-002
9.970173e+002,6.295539e-002
9.989458e+002,6.378540e-002
1.000874e+003,6.550405e-002
1.002803e+003,6.852137e-002
1.004731e+003,7.277760e-002
1.006660e+003,7.802284e-002
1.008588e+003,8.384203e-002
1.010517e+003,9.029577e-002
1.012445e+003,9.637395e-002
1.014374e+003,9.967730e-002
1.016302e+003,9.972132e-002
1.018230e+003,9.758353e-002
1.020159e+003,9.354815e-002
1.022087e+003,8.859126e-002
1.024016e+003,8.304487e-002
1.025944e+003,7.794785e-002
1.027873e+003,7.298914e-002
1.029801e+003,6.909224e-002
1.031730e+003,6.655927e-002
1.033658e+003,6.462665e-002
1.035587e+003,6.284701e-002
1.037515e+003,6.182811e-002
1.039444e+003,6.166903e-002
1.041372e+003,6.142316e-002
1.043301e+003,6.130981e-002
1.045229e+003,6.214704e-002
1.047157e+003,6.315573e-002
1.049086e+003,6.295957e-002
1.051014e+003,6.237970e-002
1.052943e+003,6.204746e-002
1.054871e+003,6.144625e-002
1.056800e+003,6.056264e-002
1.058728e+003,5.953327e-002
1.060657e+003,5.859214e-002
1.062585e+003,5.812795e-002
1.064514e+003,5.735367e-002
1.066442e+003,5.714084e-002
1.068371e+003,5.685227e-002
1.070299e+003,5.633828e-002
1.072228e+003,5.619292e-002
1.074156e+003,5.618794e-002
1.076084e+003,5.610536e-002
1.078013e+003,5.656635e-002
1.079941e+003,5.694428e-002
1.081870e+003,5.628514e-002
1.083798e+003,5.578131e-002
1.085727e+003,5.543902e-002
1.087655e+003,5.464591e-002
1.089584e+003,5.398000e-002
1.091512e+003,5.332005e-002
1.093441e+003,5.193903e-002
1.095369e+003,5.101930e-002
1.097298e+003,5.090443e-002
1.099226e+003,4.991983e-002
1.101155e+003,4.890237e-002
1.103083e+003,4.864832e-002
1.105011e+003,4.832700e-002
1.106940e+003,4.807317e-002
1.108868e+003,4.776337e-002
1.110797e+003,4.768612e-002
1.112725e+003,4.792333e-002
1.114654e+003,4.778734e-002
1.116582e+003,4.719948e-002
1.118511e+003,4.672568e-002
1.120439e+003,4.702491e-002
1.122368e+003,4.745853e-002
1.124296e+003,4.761354e-002
1.126225e+003,4.697197e-002
1.128153e+003,4.592301e-002
1.130082e+003,4.553114e-002
1.132010e+003,4.540019e-002
1.133938e+003,4.504323e-002
1.135867e+003,4.496840e-002
1.137795e+003,4.503886e-002
1.139724e+003,4.442765e-002
1.141652e+003,4.365981e-002
1.143581e+003,4.341429e-002
1.145509e+003,4.268793e-002
1.147438e+003,4.196567e-002
1.149366e+003,4.140094e-002
1.151295e+003,4.073237e-002
1.153223e+003,4.049778e-002
1.155152e+003,4.048891e-002
1.157080e+003,4.048181e-002
1.159009e+003,4.003086e-002
1.160937e+003,3.971495e-002
1.162865e+003,3.917294e-002
1.164794e+003,3.872276e-002
1.166722e+003,3.879931e-002
1.168651e+003,3.847669e-002
1.170579e+003,3.806511e-002
1.172508e+003,3.818702e-002
1.174436e+003,3.855533e-002
1.176365e+003,3.862287e-002
1.178293e+003,3.850761e-002
1.180222e+003,3.882656e-002
1.182150e+003,3.880471e-002
1.184079e+003,3.900664e-002
1.186007e+003,4.004383e-002
1.187936e+003,4.073987e-002
1.189864e+003,4.100864e-002
1.191792e+003,4.149899e-002
1.193721e+003,4.171647e-002
1.195649e+003,4.158197e-002
1.197578e+003,4.168456e-002
1.199506e+003,4.158194e-002
1.201435e+003,4.166475e-002
1.203363e+003,4.171191e-002
1.205292e+003,4.184601e-002
1.207220e+003,4.216980e-002
1.209149e+003,4.201899e-002
1.211077e+003,4.205162e-002
1.213006e+003,4.239298e-002
1.214934e+003,4.268833e-002
1.216863e+003,4.320247e-002
1.218791e+003,4.374360e-002
1.220719e+003,4.399924e-002
1.222648e+003,4.412327e-002
1.224576e+003,4.430823e-002
1.226505e+003,4.444270e-002
1.228433e+003,4.454057e-002
1.230362e+003,4.469519e-002
1.232290e+003,4.489285e-002
1.234219e+003,4.534189e-002
1.236147e+003,4.558372e-002
1.238076e+003,4.575355e-002
1.240004e+003,4.558652e-002
1.241933e+003,4.511803e-002
1.243861e+003,4.504874e-002
1.245790e+003,4.521443e-002
1.247718e+003,4.532840e-002
1.249646e+003,4.512612e-002
1.251575e+003,4.498409e-002
1.253503e+003,4.497465e-002
1.255432e+003,4.492104e-002
1.257360e+003,4.485185e-002
1.259289e+003,4.504437e-002
1.261217e+003,4.495988e-002
1.263146e+003,4.470107e-002
1.265074e+003,4.486853e-002
1.267003e+003,4.528342e-002
1.268931e+003,4.578315e-002
1.270860e+003,4.637806e-002
1.272788e+003,4.671254e-002
1.274717e+003,4.691113e-002
1.276645e+003,4.657000e-002
1.278573e+003,4.618214e-002
1.280502e+003,4.621959e-002
1.282430e+003,4.597542e-002
1.284359e+003,4.540604e-002
1.286287e+003,4.510524e-002
1.288216e+003,4.504062e-002
1.290144e+003,4.447610e-002
1.292073e+003,4.395910e-002
1.294001e+003,4.336109e-002
1.295930e+003,4.285846e-002
1.297858e+003,4.224443e-002
1.299787e+003,4.161808e-002
1.301715e+003,4.127834e-002
1.303644e+003,4.096174e-002
1.305572e+003,4.045217e-002
1.307500e+003,4.004300e-002
1.309429e+003,3.967055e-002
1.311357e+003,3.935537e-002
1.313286e+003,3.923020e-002
1.315214e+003,3.909208e-002
1.317143e+003,3.879515e-002
1.319071e+003,3.855830e-002
1.321000e+003,3.851181e-002
1.322928e+003,3.865304e-002
1.324857e+003,3.860893e-002
1.326785e+003,3.843423e-002
1.328714e+003,3.843064e-002
1.330642e+003,3.835868e-002
1.332571e+003,3.842398e-002
1.334499e+003,3.832951e-002
1.336427e+003,3.806684e-002
1.338356e+003,3.808232e-002
1.340284e+003,3.830765e-002
1.342213e+003,3.854291e-002
1.344141e+003,3.868987e-002
1.346070e+003,3.886388e-002
1.347998e+003,3.894484e-002
1.349927e+003,3.886823e-002
1.351855e+003,3.871556e-002
1.353784e+003,3.921464e-002
1.355712e+003,4.001648e-002
1.357641e+003,4.073634e-002
1.359569e+003,4.112766e-002
1.361498e+003,4.122547e-002
1.363426e+003,4.135990e-002
1.365354e+003,4.160181e-002
1.367283e+003,4.193545e-002
1.369211e+003,4.251874e-002
1.371140e+003,4.278076e-002
1.373068e+003,4.269253e-002
1.374997e+003,4.282676e-002
1.376925e+003,4.302072e-002
1.378854e+003,4.262765e-002
1.380782e+003,4.219806e-002
1.382711e+003,4.195479e-002
1.384639e+003,4.180709e-002
1.386568e+003,4.176987e-002
1.388496e+003,4.175346e-002
1.390425e+003,4.172781e-002
1.392353e+003,4.146596e-002
1.394281e+003,4.123196e-002
1.396210e+003,4.116179e-002
1.398138e+003,4.123192e-002
1.400067e+003,4.121921e-002
1.401995e+003,4.144792e-002
1.403924e+003,4.196822e-002
1.405852e+003,4.219426e-002
1.407781e+003,4.177805e-002
1.409709e+003,4.134324e-002
1.411638e+003,4.137921e-002
1.413566e+003,4.146254e-002
1.415495e+003,4.127652e-002
1.417423e+003,4.105270e-002
1.419352e+003,4.099269e-002
1.421280e+003,4.090647e-002
1.423208e+003,4.086770e-002
1.425137e+003,4.090625e-002
1.427065e+003,4.079344e-002
1.428994e+003,4.084840e-002
1.430922e+003,4.089573e-002
1.432851e+003,4.066247e-002
1.434779e+003,4.053506e-002
1.436708e+003,4.074016e-002
1.438636e+003,4.116755e-002
1.440565e+003,4.162249e-002
1.442493e+003,4.197191e-002
1.444422e+003,4.218433e-002
1.446350e+003,4.223406e-002
1.448279e+003,4.242425e-002
1.450207e+003,4.254911e-002
1.452135e+003,4.213003e-002
1.454064e+003,4.135454e-002
1.455992e+003,4.073332e-002
1.457921e+003,4.070584e-002
1.459849e+003,4.063904e-002
1.461778e+003,4.031145e-002
1.463706e+003,3.988159e-002
1.465635e+003,3.975645e-002
1.467563e+003,3.940631e-002
1.469492e+003,3.869433e-002
1.471420e+003,3.842739e-002
1.473349e+003,3.821766e-002
1.475277e+003,3.791644e-002
1.477206e+003,3.769699e-002
1.479134e+003,3.719568e-002
1.481063e+003,3.635219e-002
1.482991e+003,3.573214e-002
1.484919e+003,3.527326e-002
1.486848e+003,3.491123e-002
1.488776e+003,3.458015e-002
1.490705e+003,3.432408e-002
1.492633e+003,3.447274e-002
1.494562e+003,3.467359e-002
1.496490e+003,3.468231e-002
1.498419e+003,3.478310e-002
1.500347e+003,3.506401e-002
1.502276e+003,3.529421e-002
1.504204e+003,3.548153e-002
1.506133e+003,3.583968e-002
1.508061e+003,3.606759e-002
1.509990e+003,3.669797e-002
1.511918e+003,3.742282e-002
1.513846e+003,3.805650e-002
1.515775e+003,3.820116e-002
1.517703e+003,3.800232e-002
1.519632e+003,3.740866e-002
1.521560e+003,3.643833e-002
1.523489e+003,3.560800e-002
1.525417e+003,3.498647e-002
1.527346e+003,3.426825e-002
1.529274e+003,3.378960e-002
1.531203e+003,3.394367e-002
1.533131e+003,3.432472e-002
1.535060e+003,3.445261e-002
1.536988e+003,3.444469e-002
1.538917e+003,3.469642e-002
1.540845e+003,3.512055e-002
1.542773e+003,3.513888e-002
1.544702e+003,3.514484e-002
1.546630e+003,3.547783e-002
1.548559e+003,3.602353e-002
1.550487e+003,3.624048e-002
1.552416e+003,3.685794e-002
1.554344e+003,3.769496e-002
1.556273e+003,3.848784e-002
1.558201e+003,3.934844e-002
1.560130e+003,3.986863e-002
1.562058e+003,4.065818e-002
1.563987e+003,4.159477e-002
1.565915e+003,4.220686e-002
1.567844e+003,4.292850e-002
1.569772e+003,4.381331e-002
1.571700e+003,4.459880e-002
1.573629e+003,4.564315e-002
1.575557e+003,4.674941e-002
1.577486e+003,4.783584e-002
1.579414e+003,4.894309e-002
1.581343e+003,5.029359e-002
1.583271e+003,5.182074e-002
1.585200e+003,5.361708e-002
1.587128e+003,5.495430e-002
1.589057e+003,5.632033e-002
1.590985e+003,5.809473e-002
1.592914e+003,5.982127e-002
1.594842e+003,6.159281e-002
1.596771e+003,6.358014e-002
1.598699e+003,6.575051e-002
1.600627e+003,6.827054e-002
1.602556e+003,7.082013e-002
1.604484e+003,7.339675e-002
1.606413e+003,7.601207e-002
1.608341e+003,7.877340e-002
1.610270e+003,8.140422e-002
1.612198e+003,8.361983e-002
1.614127e+003,8.638896e-002
1.616055e+003,8.940970e-002
1.617984e+003,9.212663e-002
1.619912e+003,9.471147e-002
1.621841e+003,9.720231e-002
1.623769e+003,9.960445e-002
1.625698e+003,1.020445e-001
1.627626e+003,1.042892e-001
1.629554e+003,1.062351e-001
1.631483e+003,1.079481e-001
1.633411e+003,1.090074e-001
1.635340e+003,1.099209e-001
1.637268e+003,1.105421e-001
1.639197e+003,1.108526e-001
1.641125e+003,1.107210e-001
1.643054e+003,1.103013e-001
1.644982e+003,1.096959e-001
1.646911e+003,1.087870e-001
1.648839e+003,1.073721e-001
1.650768e+003,1.060383e-001
1.652696e+003,1.045783e-001
1.654625e+003,1.024781e-001
1.656553e+003,1.004523e-001
1.658481e+003,9.823881e-002
1.660410e+003,9.609758e-002
1.662338e+003,9.393818e-002
1.664267e+003,9.148827e-002
1.666195e+003,8.892887e-002
1.668124e+003,8.654264e-002
1.670052e+003,8.419608e-002
1.671981e+003,8.163664e-002
1.673909e+003,7.915802e-002
1.675838e+003,7.668646e-002
1.677766e+003,7.447174e-002
1.679695e+003,7.210835e-002
1.681623e+003,6.952768e-002
1.683552e+003,6.715883e-002
1.685480e+003,6.523563e-002
1.687408e+003,6.368859e-002
1.689337e+003,6.194782e-002
1.691265e+003,6.019208e-002
1.693194e+003,5.865506e-002
1.695122e+003,5.713075e-002
1.697051e+003,5.555122e-002
1.698979e+003,5.430702e-002
1.700908e+003,5.296224e-002
1.702836e+003,5.170547e-002
1.704765e+003,5.051548e-002
1.706693e+003,4.930101e-002
1.708622e+003,4.807202e-002
1.710550e+003,4.665119e-002
1.712479e+003,4.528393e-002
1.714407e+003,4.419615e-002
1.716335e+003,4.348889e-002
1.718264e+003,4.253380e-002
1.720192e+003,4.145838e-002
1.722121e+003,4.026822e-002
1.724049e+003,3.884279e-002
1.725978e+003,3.708115e-002
1.727906e+003,3.524034e-002
1.729835e+003,3.328341e-002
1.731763e+003,3.140032e-002
1.733692e+003,2.968639e-002
1.735620e+003,2.799879e-002
1.737549e+003,2.669470e-002
1.739477e+003,2.536073e-002
1.741406e+003,2.384815e-002
1.743334e+003,2.238899e-002
1.745262e+003,2.131055e-002
1.747191e+003,2.051869e-002
1.749119e+003,1.976208e-002
1.751048e+003,1.891202e-002
1.752976e+003,1.790072e-002
1.754905e+003,1.717619e-002
1.756833e+003,1.662801e-002
1.758762e+003,1.618681e-002
1.760690e+003,1.569727e-002
1.762619e+003,1.513173e-002
1.764547e+003,1.470767e-002
1.766476e+003,1.419782e-002
1.768404e+003,1.341126e-002
1.770333e+003,1.282490e-002
1.772261e+003,1.270704e-002
1.774189e+003,1.262213e-002
1.776118e+003,1.224411e-002
1.778046e+003,1.152636e-002
1.779975e+003,1.119359e-002
1.781903e+003,1.088696e-002
1.783832e+003,1.043739e-002
1.785760e+003,1.014238e-002
1.787689e+003,9.914996e-003
1.789617e+003,9.700739e-003
1.791546e+003,9.576543e-003
1.793474e+003,9.302192e-003
1.795403e+003,9.086681e-003
1.797331e+003,8.734334e-003
1.799260e+003,8.517921e-003
1.801188e+003,8.139431e-003
1.803116e+003,7.789708e-003
1.805045e+003,7.852525e-003
1.806973e+003,7.976430e-003
1.808902e+003,7.864974e-003
1.810830e+003,7.745182e-003
1.812759e+003,7.860757e-003
1.814687e+003,7.760024e-003
1.816616e+003,7.510820e-003
1.818544e+003,7.401607e-003
1.820473e+003,7.494673e-003
1.822401e+003,7.169553e-003
1.824330e+003,6.856255e-003
1.826258e+003,6.930316e-003
1.828187e+003,6.975904e-003
1.830115e+003,6.911261e-003
1.832043e+003,6.834140e-003
1.833972e+003,6.773591e-003
1.835900e+003,6.638891e-003
1.837829e+003,6.606358e-003
1.839757e+003,6.501946e-003
1.841686e+003,6.506184e-003
1.843614e+003,6.442015e-003
1.845543e+003,6.423048e-003
1.847471e+003,6.376342e-003
1.849400e+003,6.197566e-003
1.851328e+003,6.169972e-003
1.853257e+003,6.263346e-003
1.855185e+003,6.175921e-003
1.857114e+003,5.965784e-003
1.859042e+003,5.989904e-003
1.860970e+003,6.141944e-003
1.862899e+003,6.046077e-003
1.864827e+003,5.924098e-003
1.866756e+003,5.856455e-003
1.868684e+003,5.824753e-003
1.870613e+003,5.837413e-003
1.872541e+003,5.867000e-003
1.874470e+003,5.921243e-003
1.876398e+003,5.962794e-003
1.878327e+003,5.781435e-003
1.880255e+003,5.710524e-003
1.882183e+003,5.663457e-003
1.884112e+003,5.724054e-003
1.886040e+003,5.783282e-003
1.887969e+003,5.819917e-003
1.889897e+003,5.662685e-003
1.891826e+003,5.616598e-003
1.893754e+003,5.839630e-003
1.895683e+003,5.690515e-003
1.897611e+003,5.598775e-003
1.899540e+003,5.859880e-003
1.901468e+003,5.961955e-003
1.903397e+003,5.880669e-003
1.905325e+003,5.934947e-003
1.907254e+003,6.081189e-003
1.909182e+003,6.054577e-003
1.911110e+003,5.976063e-003
1.913039e+003,5.891484e-003
1.914967e+003,5.965414e-003
1.916896e+003,6.042415e-003
1.918824e+003,5.847219e-003
1.920753e+003,5.843491e-003
1.922681e+003,6.028707e-003
1.924610e+003,6.043154e-003
1.926538e+003,5.995346e-003
1.928467e+003,6.047051e-003
1.930395e+003,6.108541e-003
1.932324e+003,6.259178e-003
1.934252e+003,6.245295e-003
1.936181e+003,6.107769e-003
1.938109e+003,6.045338e-003
1.940037e+003,5.996556e-003
1.941966e+003,6.129376e-003
1.943894e+003,6.592060e-003
1.945823e+003,6.566561e-003
1.947751e+003,6.392919e-003
1.949680e+003,6.521219e-003
1.951608e+003,6.461453e-003
1.953537e+003,6.297467e-003
1.955465e+003,6.295719e-003
1.957394e+003,6.419282e-003
1.959322e+003,6.634248e-003
1.961251e+003,6.687476e-003
1.963179e+003,6.690841e-003
1.965108e+003,6.837741e-003
1.967036e+003,7.080800e-003
1.968964e+003,7.250270e-003
1.970893e+003,7.289860e-003
1.972821e+003,7.245857e-003
1.974750e+003,7.108013e-003
1.976678e+003,7.209135e-003
1.978607e+003,7.491234e-003
1.980535e+003,7.825569e-003
1.982464e+003,7.818113e-003
1.984392e+003,7.666328e-003
1.986321e+003,7.643396e-003
1.988249e+003,7.643093e-003
1.990178e+003,7.502190e-003
1.992106e+003,7.734017e-003
1.994035e+003,8.115125e-003
1.995963e+003,8.196762e-003
1.997891e+003,8.186362e-003
1.999820e+003,8.230191e-003
2.001748e+003,8.461731e-003
2.003677e+003,8.684945e-003
2.005605e+003,8.604635e-003
2.007534e+003,8.513596e-003
2.009462e+003,8.647527e-003
2.011391e+003,8.777576e-003
2.013319e+003,8.899852e-003
2.015248e+003,8.885411e-003
2.017176e+003,9.066583e-003
2.019105e+003,9.214120e-003
2.021033e+003,9.215914e-003
2.022962e+003,9.282052e-003
2.024890e+003,9.320269e-003
2.026818e+003,9.231313e-003
2.028747e+003,9.450487e-003
2.030675e+003,9.697689e-003
2.032604e+003,9.780268e-003
2.034532e+003,9.697113e-003
2.036461e+003,9.623324e-003
2.038389e+003,9.816801e-003
2.040318e+003,1.006052e-002
2.042246e+003,1.010213e-002
2.044175e+003,1.030450e-002
2.046103e+003,1.043244e-002
2.048032e+003,1.024079e-002
2.049960e+003,1.028472e-002
2.051889e+003,1.044567e-002
2.053817e+003,1.034542e-002
2.055746e+003,1.032293e-002
2.057674e+003,1.038791e-002
2.059603e+003,1.053966e-002
2.061531e+003,1.062033e-002
2.063459e+003,1.064641e-002
2.065388e+003,1.086552e-002
2.067316e+003,1.085723e-002
2.069245e+003,1.070526e-002
2.071173e+003,1.051814e-002
2.073102e+003,1.058061e-002
2.075030e+003,1.077261e-002
2.076959e+003,1.102461e-002
2.078887e+003,1.110051e-002
2.080816e+003,1.106285e-002
2.082744e+003,1.124707e-002
2.084673e+003,1.139879e-002
2.086601e+003,1.129689e-002
2.088530e+003,1.125306e-002
2.090458e+003,1.152674e-002
2.092386e+003,1.166293e-002
2.094315e+003,1.155209e-002
2.096243e+003,1.150302e-002
2.098172e+003,1.159472e-002
2.100100e+003,1.170272e-002
2.102029e+003,1.159112e-002
2.103957e+003,1.152817e-002
2.105886e+003,1.170381e-002
2.107814e+003,1.192124e-002
2.109743e+003,1.200311e-002
2.111671e+003,1.182606e-002
2.113600e+003,1.161579e-002
2.115528e+003,1.173700e-002
2.117457e+003,1.194215e-002
2.119385e+003,1.185881e-002
2.121313e+003,1.187489e-002
2.123242e+003,1.186855e-002
2.125170e+003,1.185020e-002
2.127099e+003,1.181847e-002
2.129027e+003,1.179657e-002
2.130956e+003,1.175439e-002
2.132884e+003,1.181990e-002
2.134813e+003,1.173795e-002
2.136741e+003,1.174428e-002
2.138670e+003,1.195727e-002
2.140598e+003,1.183539e-002
2.142527e+003,1.154865e-002
2.144455e+003,1.146417e-002
2.146384e+003,1.145254e-002
2.148312e+003,1.150210e-002
2.150240e+003,1.164625e-002
2.152169e+003,1.156594e-002
2.154097e+003,1.154501e-002
2.156026e+003,1.156073e-002
2.157954e+003,1.132808e-002
2.159883e+003,1.107189e-002
2.161811e+003,1.113114e-002
2.163740e+003,1.130835e-002
2.165668e+003,1.135164e-002
2.167597e+003,1.131053e-002
2.169525e+003,1.107423e-002
2.171454e+003,1.088658e-002
2.173382e+003,1.085013e-002
2.175311e+003,1.072204e-002
2.177239e+003,1.054398e-002
2.179167e+003,1.055274e-002
2.181096e+003,1.051801e-002
2.183024e+003,1.053824e-002
2.184953e+003,1.056805e-002
2.186881e+003,1.039612e-002
2.188810e+003,1.028062e-002
2.190738e+003,1.009955e-002
2.192667e+003,9.987378e-003
2.194595e+003,9.873200e-003
2.196524e+003,9.800195e-003
2.198452e+003,9.737401e-003
2.200381e+003,9.811820e-003
2.202309e+003,9.711377e-003
2.204238e+003,9.580100e-003
2.206166e+003,9.710361e-003
2.208094e+003,9.888353e-003
2.210023e+003,9.709277e-003
2.211951e+003,9.321623e-003
2.213880e+003,9.222717e-003
2.215808e+003,9.168467e-003
2.217737e+003,9.086139e-003
2.219665e+003,8.864139e-003
2.221594e+003,8.510454e-003
2.223522e+003,8.619675e-003
2.225451e+003,8.626672e-003
2.227379e+003,8.477002e-003
2.229308e+003,8.374235e-003
2.231236e+003,8.313504e-003
2.233165e+003,8.233601e-003
2.235093e+003,8.185146e-003
2.237021e+003,8.222288e-003
2.238950e+003,8.089469e-003
2.240878e+003,7.917038e-003
2.242807e+003,7.929287e-003
2.244735e+003,7.793858e-003
2.246664e+003,7.604752e-003
2.248592e+003,7.601313e-003
2.250521e+003,7.706293e-003
2.252449e+003,7.427290e-003
2.254378e+003,7.250472e-003
2.256306e+003,7.247305e-003
2.258235e+003,7.308662e-003
2.260163e+003,7.163085e-003
2.262092e+003,6.811084e-003
2.264020e+003,6.724625e-003
2.265948e+003,6.699152e-003
2.267877e+003,6.589571e-003
2.269805e+003,6.570766e-003
2.271734e+003,6.460141e-003
2.273662e+003,6.299753e-003
2.275591e+003,6.302712e-003
2.277519e+003,6.217833e-003
2.279448e+003,6.052158e-003
2.281376e+003,5.734428e-003
2.283305e+003,5.957923e-003
2.285233e+003,6.092412e-003
2.287162e+003,5.935519e-003
2.289090e+003,5.976802e-003
2.291019e+003,5.914357e-003
2.292947e+003,5.594009e-003
2.294875e+003,5.467090e-003
2.296804e+003,5.563433e-003
2.298732e+003,5.680007e-003
2.300661e+003,5.570884e-003
2.302589e+003,5.489605e-003
2.304518e+003,5.334438e-003
2.306446e+003,5.330480e-003
2.308375e+003,5.464070e-003
2.310303e+003,5.379993e-003
2.312232e+003,5.275540e-003
2.314160e+003,5.272488e-003
2.316089e+003,5.216616e-003
2.318017e+003,5.253338e-003
2.319946e+003,5.258838e-003
2.321874e+003,5.213967e-003
2.323802e+003,5.089003e-003
2.325731e+003,4.990317e-003
2.327659e+003,4.809799e-003
2.329588e+003,4.618472e-003
2.331516e+003,4.583110e-003
2.333445e+003,4.602766e-003
2.335373e+003,4.434058e-003
2.337302e+003,4.308448e-003
2.339230e+003,4.160594e-003
2.341159e+003,4.043858e-003
2.343087e+003,4.056099e-003
2.345016e+003,4.038106e-003
2.346944e+003,3.982527e-003
2.348873e+003,3.974702e-003
2.350801e+003,3.886098e-003
2.352729e+003,3.962898e-003
2.354658e+003,3.962296e-003
2.356586e+003,3.886566e-003
2.358515e+003,3.835486e-003
2.360443e+003,3.761783e-003
2.362372e+003,3.744738e-003
2.364300e+003,3.763120e-003
2.366229e+003,3.617824e-003
2.368157e+003,3.591964e-003
2.370086e+003,3.519773e-003
2.372014e+003,3.414063e-003
2.373943e+003,3.322469e-003
2.375871e+003,3.389418e-003
2.377800e+003,3.501702e-003
2.379728e+003,3.331384e-003
2.381656e+003,3.349715e-003
2.383585e+003,3.287913e-003
2.385513e+003,3.179056e-003
2.387442e+003,3.202654e-003
2.389370e+003,3.185931e-003
2.391299e+003,3.062951e-003
2.393227e+003,2.934968e-003
2.395156e+003,2.938738e-003
2.397084e+003,2.921792e-003
2.399013e+003,2.693851e-003
2.400941e+003,2.532715e-003
2.402870e+003,2.426579e-003
2.404798e+003,2.282395e-003
2.406727e+003,2.348617e-003
2.408655e+003,2.544913e-003
2.410583e+003,2.536547e-003
2.412512e+003,2.466564e-003
2.414440e+003,2.308876e-003
2.416369e+003,2.022732e-003
2.418297e+003,2.260945e-003
2.420226e+003,2.517851e-003
2.422154e+003,2.512685e-003
2.424083e+003,2.596209e-003
2.426011e+003,2.470230e-003
2.427940e+003,2.073833e-003
2.429868e+003,2.148248e-003
2.431797e+003,2.299416e-003
2.433725e+003,2.110989e-003
2.435654e+003,1.926139e-003
2.437582e+003,1.886203e-003
2.439510e+003,2.045469e-003
2.441439e+003,1.884439e-003
2.443367e+003,1.677499e-003
2.445296e+003,1.678630e-003
2.447224e+003,1.682122e-003
2.449153e+003,1.781589e-003
2.451081e+003,1.899880e-003
2.453010e+003,1.877617e-003
2.454938e+003,1.608485e-003
2.456867e+003,1.656577e-003
2.458795e+003,1.913126e-003
2.460724e+003,1.876552e-003
2.462652e+003,1.956825e-003
2.464581e+003,1.944710e-003
2.466509e+003,1.814627e-003
2.468438e+003,1.868799e-003
2.470366e+003,2.054490e-003
2.472294e+003,2.009283e-003
2.474223e+003,1.754374e-003
2.476151e+003,1.505600e-003
2.478080e+003,1.503106e-003
2.480008e+003,1.681490e-003
2.481937e+003,1.760795e-003
2.483865e+003,1.725665e-003
2.485794e+003,1.663329e-003
2.487722e+003,1.472818e-003
2.489651e+003,1.408291e-003
2.491579e+003,1.350919e-003
2.493508e+003,1.283420e-003
2.495436e+003,1.426840e-003
2.497365e+003,1.539615e-003
2.499293e+003,1.579851e-003
2.501221e+003,1.560398e-003
2.503150e+003,1.474912e-003
2.505078e+003,1.534528e-003
2.507007e+003,1.511252e-003
2.508935e+003,1.459619e-003
2.510864e+003,1.295882e-003
2.512792e+003,1.431693e-003
2.514721e+003,1.437611e-003
2.516649e+003,1.440935e-003
2.518578e+003,1.655712e-003
2.520506e+003,1.814162e-003
2.522435e+003,1.664626e-003
2.524363e+003,1.283453e-003
2.526292e+003,1.137655e-003
2.528220e+003,1.501411e-003
2.530148e+003,1.605991e-003
2.532077e+003,1.387050e-003
2.534005e+003,1.219253e-003
2.535934e+003,1.030630e-003
2.537862e+003,1.050525e-003
2.539791e+003,1.196892e-003
2.541719e+003,1.309275e-003
2.543648e+003,1.182074e-003
2.545576e+003,9.532182e-004
2.547505e+003,9.328629e-004
2.549433e+003,1.082312e-003
2.551362e+003,1.056603e-003
2.553290e+003,1.200945e-003
2.555219e+003,1.210648e-003
2.557147e+003,9.342243e-004
2.559075e+003,1.046739e-003
2.561004e+003,1.105565e-003
2.562932e+003,9.723458e-004
2.564861e+003,9.897805e-004
2.566789e+003,9.025143e-004
2.568718e+003,9.972195e-004
2.570646e+003,7.580722e-004
2.572575e+003,7.553505e-004
2.574503e+003,1.005290e-003
2.576432e+003,1.180379e-003
2.578360e+003,9.685268e-004
2.580289e+003,6.888062e-004
2.582217e+003,9.807143e-004
2.584146e+003,1.084239e-003
2.586074e+003,8.621414e-004
2.588002e+003,7.125353e-004
2.589931e+003,8.572611e-004
2.591859e+003,9.184852e-004
2.593788e+003,9.696891e-004
2.595716e+003,1.036741e-003
2.597645e+003,1.127855e-003
2.599573e+003,1.163668e-003
2.601502e+003,8.405952e-004
2.603430e+003,7.809753e-004
2.605359e+003,8.421223e-004
2.607287e+003,8.490608e-004
2.609216e+003,1.212375e-003
2.611144e+003,1.522690e-003
2.613073e+003,1.356038e-003
2.615001e+003,7.550850e-004
2.616929e+003,7.497412e-004
2.618858e+003,1.159415e-003
2.620786e+003,1.269363e-003
2.622715e+003,1.145628e-003
2.624643e+003,8.573938e-004
2.626572e+003,7.446297e-004
2.628500e+003,6.329235e-004
2.630429e+003,5.359091e-004
2.632357e+003,5.921443e-004
2.634286e+003,4.787525e-004
2.636214e+003,6.859854e-004
2.638143e+003,9.265207e-004
2.640071e+003,9.086569e-004
2.642000e+003,9.189501e-004
2.643928e+003,1.044214e-003
2.645856e+003,1.328352e-003
2.647785e+003,1.199517e-003
2.649713e+003,8.987956e-004
2.651642e+003,7.833652e-004
2.653570e+003,6.007378e-004
2.655499e+003,7.096147e-004
2.657427e+003,1.167588e-003
2.659356e+003,9.253586e-004
2.661284e+003,7.295613e-004
2.663213e+003,9.463445e-004
2.665141e+003,1.201976e-003
2.667070e+003,1.244407e-003
2.668998e+003,1.111943e-003
2.670927e+003,9.599261e-004
2.672855e+003,8.548043e-004
2.674783e+003,9.298744e-004
2.676712e+003,8.811321e-004
2.678640e+003,9.966550e-004
2.680569e+003,1.122407e-003
2.682497e+003,1.145628e-003
2.684426e+003,1.211977e-003
2.686354e+003,1.417432e-003
2.688283e+003,1.522092e-003
2.690211e+003,1.424746e-003
2.692140e+003,1.602199e-003
2.694068e+003,1.730489e-003
2.695997e+003,1.637819e-003
2.697925e+003,1.587700e-003
2.699854e+003,1.559334e-003
2.701782e+003,1.699619e-003
2.703710e+003,1.875521e-003
2.705639e+003,1.830066e-003
2.707567e+003,1.716384e-003
2.709496e+003,1.755739e-003
2.711424e+003,2.012479e-003
2.713353e+003,1.884339e-003
2.715281e+003,1.506498e-003
2.717210e+003,1.492201e-003
2.719138e+003,1.596313e-003
2.721067e+003,1.836754e-003
2.722995e+003,1.962217e-003
2.724924e+003,2.113586e-003
2.726852e+003,2.372071e-003
2.728781e+003,2.486292e-003
2.730709e+003,2.367740e-003
2.732637e+003,2.391761e-003
2.734566e+003,2.599242e-003
2.736494e+003,2.844208e-003
2.738423e+003,2.580543e-003
2.740351e+003,2.428744e-003
2.742280e+003,2.581043e-003
2.744208e+003,3.074163e-003
2.746137e+003,3.232897e-003
2.748065e+003,3.153689e-003
2.749994e+003,3.159964e-003
2.751922e+003,3.359565e-003
2.753851e+003,3.438743e-003
2.755779e+003,3.410724e-003
2.757708e+003,3.531398e-003
2.759636e+003,3.608602e-003
2.761564e+003,3.665404e-003
2.763493e+003,3.843976e-003
2.765421e+003,4.328795e-003
2.767350e+003,4.380436e-003
2.769278e+003,4.339136e-003
2.771207e+003,4.667501e-003
2.773135e+003,4.705952e-003
2.775064e+003,4.566602e-003
2.776992e+003,4.475534e-003
2.778921e+003,4.577518e-003
2.780849e+003,4.662578e-003
2.782778e+003,4.955998e-003
2.784706e+003,5.258469e-003
2.786635e+003,5.377913e-003
2.788563e+003,5.681787e-003
2.790491e+003,5.776935e-003
2.792420e+003,5.618813e-003
2.794348e+003,5.923930e-003
2.796277e+003,6.211716e-003
2.798205e+003,6.429740e-003
2.800134e+003,6.541098e-003
2.802062e+003,6.462226e-003
2.803991e+003,6.701743e-003
2.805919e+003,7.186193e-003
2.807848e+003,7.415662e-003
2.809776e+003,7.697861e-003
2.811705e+003,7.766635e-003
2.813633e+003,7.870272e-003
2.815562e+003,8.132916e-003
2.817490e+003,8.435615e-003
2.819418e+003,8.544245e-003
2.821347e+003,8.656821e-003
2.823275e+003,9.090369e-003
2.825204e+003,9.323959e-003
2.827132e+003,9.407517e-003
2.829061e+003,9.953203e-003
2.830989e+003,1.060658e-002
2.832918e+003,1.100881e-002
2.834846e+003,1.156002e-002
2.836775e+003,1.178561e-002
2.838703e+003,1.196820e-002
2.840632e+003,1.222369e-002
2.842560e+003,1.243623e-002
2.844489e+003,1.272021e-002
2.846417e+003,1.248220e-002
2.848345e+003,1.175609e-002
2.850274e+003,1.136732e-002
2.852202e+003,1.144352e-002
2.854131e+003,1.168658e-002
2.856059e+003,1.142131e-002
2.857988e+003,1.146931e-002
2.859916e+003,1.150496e-002
2.861845e+003,1.174629e-002
2.863773e+003,1.236797e-002
2.865702e+003,1.255405e-002
2.867630e+003,1.264922e-002
2.869558e+003,1.284514e-002
2.871487e+003,1.298540e-002
2.873415e+003,1.328706e-002
2.875344e+003,1.390014e-002
2.877272e+003,1.447086e-002
2.879201e+003,1.462223e-002
2.881129e+003,1.457919e-002
2.883058e+003,1.476519e-002
2.884986e+003,1.504926e-002
2.886915e+003,1.534518e-002
2.888843e+003,1.579199e-002
2.890771e+003,1.635068e-002
2.892700e+003,1.702551e-002
2.894628e+003,1.756665e-002
2.896557e+003,1.749710e-002
2.898485e+003,1.749634e-002
2.900414e+003,1.751186e-002
2.902342e+003,1.740373e-002
2.904271e+003,1.780112e-002
2.906199e+003,1.823442e-002
2.908128e+003,1.892714e-002
2.910056e+003,1.936321e-002
2.911985e+003,2.003677e-002
2.913913e+003,2.080046e-002
2.915842e+003,2.100316e-002
2.917770e+003,2.115599e-002
2.919698e+003,2.103853e-002
2.921627e+003,2.114211e-002
2.923555e+003,2.226297e-002
2.925484e+003,2.262374e-002
2.927412e+003,2.292439e-002
2.929341e+003,2.345680e-002
2.931269e+003,2.383149e-002
2.933198e+003,2.422233e-002
2.935126e+003,2.501073e-002
2.937055e+003,2.556318e-002
2.938983e+003,2.604230e-002
2.940912e+003,2.701084e-002
2.942840e+003,2.766297e-002
2.944769e+003,2.798766e-002
2.946697e+003,2.854196e-002
2.948625e+003,2.914544e-002
2.950554e+003,2.956717e-002
2.952482e+003,3.015176e-002
2.954411e+003,2.977251e-002
2.956339e+003,2.987958e-002
2.958268e+003,3.007260e-002
2.960196e+003,3.038207e-002
2.962125e+003,3.093873e-002
2.964053e+003,3.124953e-002
2.965982e+003,3.147369e-002
2.967910e+003,3.176748e-002
2.969839e+003,3.244644e-002
2.971767e+003,3.277533e-002
2.973696e+003,3.276479e-002
2.975624e+003,3.310801e-002
2.977552e+003,3.369048e-002
2.979481e+003,3.417830e-002
2.981409e+003,3.497235e-002
2.983338e+003,3.514322e-002
2.985266e+003,3.544785e-002
2.987195e+003,3.621185e-002
2.989123e+003,3.662669e-002
2.991052e+003,3.695007e-002
2.992980e+003,3.720773e-002
2.994909e+003,3.739151e-002
2.996837e+003,3.781377e-002
2.998766e+003,3.871900e-002
3.000694e+003,3.952663e-002
3.002623e+003,4.006149e-002
3.004551e+003,4.061917e-002
3.006479e+003,4.126336e-002
3.008408e+003,4.174040e-002
3.010336e+003,4.220087e-002
3.012265e+003,4.295809e-002
3.014193e+003,4.344886e-002
3.016122e+003,4.364178e-002
3.018050e+003,4.424161e-002
3.019979e+003,4.552547e-002
3.021907e+003,4.652813e-002
3.023836e+003,4.703673e-002
3.025764e+003,4.797391e-002
3.027693e+003,4.889585e-002
3.029621e+003,4.932837e-002
3.031550e+003,5.012294e-002
3.033478e+003,5.122710e-002
3.035406e+003,5.254501e-002
3.037335e+003,5.341012e-002
3.039263e+003,5.404547e-002
3.041192e+003,5.478621e-002
3.043120e+003,5.580814e-002
3.045049e+003,5.682307e-002
3.046977e+003,5.767678e-002
3.048906e+003,5.870679e-002
3.050834e+003,5.972348e-002
3.052763e+003,6.075676e-002
3.054691e+003,6.223873e-002
3.056620e+003,6.330486e-002
3.058548e+003,6.396224e-002
3.060477e+003,6.490777e-002
3.062405e+003,6.646165e-002
3.064333e+003,6.768277e-002
3.066262e+003,6.885569e-002
3.068190e+003,6.992155e-002
3.070119e+003,7.113789e-002
3.072047e+003,7.282086e-002
3.073976e+003,7.389783e-002
3.075904e+003,7.505389e-002
3.077833e+003,7.637521e-002
3.079761e+003,7.750054e-002
3.081690e+003,7.879660e-002
3.083618e+003,8.033527e-002
3.085547e+003,8.196705e-002
3.087475e+003,8.324145e-002
3.089404e+003,8.443359e-002
3.091332e+003,8.629660e-002
3.093260e+003,8.774313e-002
3.095189e+003,8.871666e-002
3.097117e+003,9.030825e-002
3.099046e+003,9.196699e-002
3.100974e+003,9.300850e-002
3.102903e+003,9.432659e-002
3.104831e+003,9.548820e-002
3.106760e+003,9.726560e-002
3.108688e+003,9.962896e-002
3.110617e+003,1.014969e-001
3.112545e+003,1.029842e-001
3.114474e+003,1.046375e-001
3.116402e+003,1.062975e-001
3.118331e+003,1.081068e-001
3.120259e+003,1.100041e-001
3.122188e+003,1.119159e-001
3.124116e+003,1.135625e-001
3.126044e+003,1.152116e-001
3.127973e+003,1.168502e-001
3.129901e+003,1.184031e-001
3.131830e+003,1.202169e-001
3.133758e+003,1.219058e-001
3.135687e+003,1.237937e-001
3.137615e+003,1.254448e-001
3.139544e+003,1.273634e-001
3.141472e+003,1.297946e-001
3.143401e+003,1.322236e-001
3.145329e+003,1.339884e-001
3.147258e+003,1.354005e-001
3.149186e+003,1.368327e-001
3.151115e+003,1.385466e-001
3.153043e+003,1.405375e-001
3.154971e+003,1.424060e-001
3.156900e+003,1.441427e-001
3.158828e+003,1.459440e-001
3.160757e+003,1.481967e-001
3.162685e+003,1.505152e-001
3.164614e+003,1.520002e-001
3.166542e+003,1.537409e-001
3.168471e+003,1.554694e-001
3.170399e+003,1.577974e-001
3.172328e+003,1.596910e-001
3.174256e+003,1.614016e-001
3.176185e+003,1.634713e-001
3.178113e+003,1.652212e-001
3.180042e+003,1.664541e-001
3.181970e+003,1.677231e-001
3.183898e+003,1.698384e-001
3.185827e+003,1.721491e-001
3.187755e+003,1.740395e-001
3.189684e+003,1.755712e-001
3.191612e+003,1.765981e-001
3.193541e+003,1.782282e-001
3.195469e+003,1.798068e-001
3.197398e+003,1.809274e-001
3.199326e+003,1.827899e-001
3.201255e+003,1.852369e-001
3.203183e+003,1.867382e-001
3.205112e+003,1.875606e-001
3.207040e+003,1.888596e-001
3.208969e+003,1.905555e-001
3.210897e+003,1.919922e-001
3.212825e+003,1.928846e-001
3.214754e+003,1.943049e-001
3.216682e+003,1.962601e-001
3.218611e+003,1.975345e-001
3.220539e+003,1.983869e-001
3.222468e+003,1.990683e-001
3.224396e+003,2.006744e-001
3.226325e+003,2.017304e-001
3.228253e+003,2.021904e-001
3.230182e+003,2.029100e-001
3.232110e+003,2.040045e-001
3.234039e+003,2.052625e-001
3.235967e+003,2.058804e-001
3.237896e+003,2.061513e-001
3.239824e+003,2.063112e-001
3.241752e+003,2.071393e-001
3.243681e+003,2.083121e-001
3.245609e+003,2.086826e-001
3.247538e+003,2.085885e-001
3.249466e+003,2.091179e-001
3.251395e+003,2.100982e-001
3.253323e+003,2.112190e-001
3.255252e+003,2.114343e-001
3.257180e+003,2.104342e-001
3.259109e+003,2.104141e-001
3.261037e+003,2.109815e-001
3.262966e+003,2.115585e-001
3.264894e+003,2.129170e-001
3.266823e+003,2.134416e-001
3.268751e+003,2.126907e-001
3.270679e+003,2.131126e-001
3.272608e+003,2.142205e-001
3.274536e+003,2.140742e-001
3.276465e+003,2.128770e-001
3.278393e+003,2.128005e-001
3.280322e+003,2.140284e-001
3.282250e+003,2.150024e-001
3.284179e+003,2.147598e-001
3.286107e+003,2.142045e-001
3.288036e+003,2.144113e-001
3.289964e+003,2.145490e-001
3.291893e+003,2.147960e-001
3.293821e+003,2.156333e-001
3.295750e+003,2.158109e-001
3.297678e+003,2.150046e-001
3.299606e+003,2.150677e-001
3.301535e+003,2.153140e-001
3.303463e+003,2.157812e-001
3.305392e+003,2.160585e-001
3.307320e+003,2.154807e-001
3.309249e+003,2.150421e-001
3.311177e+003,2.153338e-001
3.313106e+003,2.159891e-001
3.315034e+003,2.169449e-001
3.316963e+003,2.174924e-001
3.318891e+003,2.176944e-001
3.320820e+003,2.174938e-001
3.322748e+003,2.173410e-001
3.324677e+003,2.178143e-001
3.326605e+003,2.181963e-001
3.328533e+003,2.176120e-001
3.330462e+003,2.166123e-001
3.332390e+003,2.165052e-001
3.334319e+003,2.164806e-001
3.336247e+003,2.168338e-001
3.338176e+003,2.171657e-001
3.340104e+003,2.173257e-001
3.342033e+003,2.167386e-001
3.343961e+003,2.165827e-001
3.345890e+003,2.171552e-001
3.347818e+003,2.177045e-001
3.349747e+003,2.176033e-001
3.351675e+003,2.176431e-001
3.353604e+003,2.174365e-001
3.355532e+003,2.168317e-001
3.357460e+003,2.163683e-001
3.359389e+003,2.167412e-001
3.361317e+003,2.166238e-001
3.363246e+003,2.160421e-001
3.365174e+003,2.149254e-001
3.367103e+003,2.133312e-001
3.369031e+003,2.131818e-001
3.370960e+003,2.136849e-001
3.372888e+003,2.127736e-001
3.374817e+003,2.117948e-001
3.376745e+003,2.119435e-001
3.378674e+003,2.117451e-001
3.380602e+003,2.113515e-001
3.382531e+003,2.104079e-001
3.384459e+003,2.095014e-001
3.386387e+003,2.089793e-001
3.388316e+003,2.081346e-001
3.390244e+003,2.077091e-001
3.392173e+003,2.062819e-001
3.394101e+003,2.063319e-001
3.396030e+003,2.059979e-001
3.397958e+003,2.038414e-001
3.399887e+003,2.026171e-001
3.401815e+003,2.021365e-001
3.403744e+003,2.021323e-001
3.405672e+003,2.007416e-001
3.407601e+003,1.984129e-001
3.409529e+003,1.969072e-001
3.411458e+003,1.964231e-001
3.413386e+003,1.950646e-001
3.415314e+003,1.936090e-001
3.417243e+003,1.923143e-001
3.419171e+003,1.896291e-001
3.421100e+003,1.881448e-001
3.423028e+003,1.874165e-001
3.424957e+003,1.859472e-001
3.426885e+003,1.845247e-001
3.428814e+003,1.830571e-001
3.430742e+003,1.815942e-001
3.432671e+003,1.812430e-001
3.434599e+003,1.792881e-001
3.436528e+003,1.771178e-001
3.438456e+003,1.762703e-001
3.440385e+003,1.751858e-001
3.442313e+003,1.745248e-001
3.444241e+003,1.730542e-001
3.446170e+003,1.706743e-001
3.448098e+003,1.688391e-001
3.450027e+003,1.668827e-001
3.451955e+003,1.654026e-001
3.453884e+003,1.644613e-001
3.455812e+003,1.631782e-001
3.457741e+003,1.617458e-001
3.459669e+003,1.605080e-001
3.461598e+003,1.592088e-001
3.463526e+003,1.572819e-001
3.465455e+003,1.558366e-001
3.467383e+003,1.551137e-001
3.469312e+003,1.529226e-001
3.471240e+003,1.505178e-001
3.473168e+003,1.487360e-001
3.475097e+003,1.472442e-001
3.477025e+003,1.470460e-001
3.478954e+003,1.463061e-001
3.480882e+003,1.445650e-001
3.482811e+003,1.432219e-001
3.484739e+003,1.412129e-001
3.486668e+003,1.388515e-001
3.488596e+003,1.379016e-001
3.490525e+003,1.368639e-001
3.492453e+003,1.352637e-001
3.494382e+003,1.333390e-001
3.496310e+003,1.312353e-001
3.498239e+003,1.297802e-001
3.500167e+003,1.280646e-001
3.502095e+003,1.265789e-001
3.504024e+003,1.251550e-001
3.505952e+003,1.233314e-001
3.507881e+003,1.220805e-001
3.509809e+003,1.210550e-001
3.511738e+003,1.195506e-001
3.513666e+003,1.181279e-001
3.515595e+003,1.173624e-001
3.517523e+003,1.155877e-001
3.519452e+003,1.137935e-001
3.521380e+003,1.112814e-001
3.523309e+003,1.082944e-001
3.525237e+003,1.073110e-001
3.527166e+003,1.075101e-001
3.529094e+003,1.065692e-001
3.531022e+003,1.049760e-001
3.532951e+003,1.037170e-001
3.534879e+003,1.033675e-001
3.536808e+003,1.021936e-001
3.538736e+003,1.000816e-001
3.540665e+003,9.810780e-002
3.542593e+003,9.639554e-002
3.544522e+003,9.552056e-002
3.546450e+003,9.376290e-002
3.548379e+003,9.163923e-002
3.550307e+003,9.034741e-002
3.552236e+003,8.854912e-002
3.554164e+003,8.616126e-002
3.556093e+003,8.500531e-002
3.558021e+003,8.427549e-002
3.559949e+003,8.288267e-002
3.561878e+003,8.160677e-002
3.563806e+003,7.975568e-002
3.565735e+003,7.769930e-002
3.567663e+003,7.695343e-002
3.569592e+003,7.579263e-002
3.571520e+003,7.445680e-002
3.573449e+003,7.328907e-002
3.575377e+003,7.226375e-002
3.577306e+003,7.112876e-002
3.579234e+003,6.973740e-002
3.581163e+003,6.842501e-002
3.583091e+003,6.765280e-002
3.585020e+003,6.662717e-002
3.586948e+003,6.464380e-002
3.588876e+003,6.286398e-002
3.590805e+003,6.222187e-002
3.592733e+003,6.144968e-002
3.594662e+003,5.967037e-002
3.596590e+003,5.812810e-002
3.598519e+003,5.693695e-002
3.600447e+003,5.534126e-002
3.602376e+003,5.405801e-002
3.604304e+003,5.318041e-002
3.606233e+003,5.201529e-002
3.608161e+003,5.069369e-002
3.610090e+003,4.919610e-002
3.612018e+003,4.797217e-002
3.613947e+003,4.748459e-002
3.615875e+003,4.662968e-002
3.617803e+003,4.581018e-002
3.619732e+003,4.466790e-002
3.621660e+003,4.298512e-002
3.623589e+003,4.238246e-002
3.625517e+003,4.210514e-002
3.627446e+003,4.083275e-002
3.629374e+003,3.937989e-002
3.631303e+003,3.840208e-002
3.633231e+003,3.724556e-002
3.635160e+003,3.602868e-002
3.637088e+003,3.465471e-002
3.639017e+003,3.341800e-002
3.640945e+003,3.226813e-002
3.642874e+003,3.075773e-002
3.644802e+003,2.964929e-002
3.646730e+003,2.832617e-002
3.648659e+003,2.745969e-002
3.650587e+003,2.661519e-002
3.652516e+003,2.567881e-002
3.654444e+003,2.403161e-002
3.656373e+003,2.280107e-002
3.658301e+003,2.213391e-002
3.660230e+003,2.094175e-002
3.662158e+003,1.951207e-002
3.664087e+003,1.775483e-002
3.666015e+003,1.635598e-002
3.667944e+003,1.567003e-002
3.669872e+003,1.481240e-002
3.671801e+003,1.394842e-002
3.673729e+003,1.279630e-002
3.675657e+003,1.150745e-002
3.677586e+003,1.061035e-002
3.679514e+003,9.866625e-003
3.681443e+003,9.365973e-003
3.683371e+003,8.423116e-003
3.685300e+003,7.477683e-003
3.687228e+003,6.780322e-003
3.689157e+003,6.299585e-003
3.691085e+003,6.340803e-003
3.693014e+003,6.271279e-003
3.694942e+003,5.354498e-003
3.696871e+003,4.143065e-003
3.698799e+003,3.969853e-003
3.700728e+003,3.755901e-003
3.702656e+003,3.008964e-003
3.704584e+003,2.446338e-003
3.706513e+003,2.134963e-003
3.708441e+003,2.032918e-003
3.710370e+003,2.017938e-003
3.712298e+003,1.112906e-003
3.714227e+003,8.629050e-004
3.716155e+003,9.016510e-004
3.718084e+003,4.440242e-004
3.720012e+003,1.980873e-004
3.721941e+003,-6.483847e-005
3.723869e+003,8.880013e-006
3.725798e+003,-1.805768e-005
3.727726e+003,-1.355302e-004
3.729655e+003,-4.625266e-005
3.731583e+003,-3.063487e-004
3.733511e+003,-7.323733e-004
3.735440e+003,-8.303069e-004
3.737368e+003,-9.602224e-004
3.739297e+003,-1.410575e-003
3.741225e+003,-1.839874e-003
3.743154e+003,-2.274352e-003
3.745082e+003,-1.914665e-003
3.747011e+003,-1.723291e-003
3.748939e+003,-1.681210e-003
3.750868e+003,-1.343691e-003
3.752796e+003,-2.093820e-003
3.754725e+003,-1.990630e-003
3.756653e+003,-1.757315e-003
3.758582e+003,-1.736459e-003
3.760510e+003,-1.767083e-003
3.762438e+003,-1.681474e-003
3.764367e+003,-2.223128e-003
3.766295e+003,-2.301412e-003
3.768224e+003,-2.158050e-003
3.770152e+003,-2.112187e-003
3.772081e+003,-2.083928e-003
3.774009e+003,-2.283845e-003
3.775938e+003,-2.331371e-003
3.777866e+003,-2.128904e-003
3.779795e+003,-1.733059e-003
3.781723e+003,-1.827831e-003
3.783652e+003,-2.873334e-003
3.785580e+003,-3.113584e-003
3.787509e+003,-2.694731e-003
3.789437e+003,-2.597776e-003
3.791365e+003,-2.480738e-003
3.793294e+003,-2.209414e-003
3.795222e+003,-2.230083e-003
3.797151e+003,-2.012761e-003
3.799079e+003,-1.993731e-003
3.801008e+003,-2.046433e-003
3.802936e+003,-2.393753e-003
3.804865e+003,-2.800321e-003
3.806793e+003,-2.712479e-003
3.808722e+003,-2.272242e-003
3.810650e+003,-2.923231e-003
3.812579e+003,-2.825077e-003
3.814507e+003,-2.718011e-003
3.816436e+003,-2.842722e-003
3.818364e+003,-2.503173e-003
3.820292e+003,-2.493916e-003
3.822221e+003,-3.259624e-003
3.824149e+003,-3.296422e-003
3.826078e+003,-3.178584e-003
3.828006e+003,-3.049265e-003
3.829935e+003,-3.121381e-003
3.831863e+003,-3.097925e-003
3.833792e+003,-3.148026e-003
3.835720e+003,-3.241470e-003
3.837649e+003,-2.975064e-003
3.839577e+003,-2.996914e-003
3.841506e+003,-3.015407e-003
3.843434e+003,-2.749356e-003
3.845363e+003,-3.157631e-003
3.847291e+003,-3.096642e-003
3.849219e+003,-3.220652e-003
3.851148e+003,-3.132533e-003
3.853076e+003,-2.999316e-003
3.855005e+003,-3.325917e-003
3.856933e+003,-4.063574e-003
3.858862e+003,-4.113269e-003
3.860790e+003,-3.147072e-003
3.862719e+003,-2.837949e-003
3.864647e+003,-3.115689e-003
3.866576e+003,-3.485757e-003
3.868504e+003,-3.343739e-003
3.870433e+003,-3.523916e-003
3.872361e+003,-3.599173e-003
3.874290e+003,-3.120295e-003
3.876218e+003,-3.546297e-003
3.878146e+003,-3.415772e-003
3.880075e+003,-2.885710e-003
3.882003e+003,-3.610313e-003
3.883932e+003,-4.130631e-003
3.885860e+003,-3.524968e-003
3.887789e+003,-2.839956e-003
3.889717e+003,-3.340747e-003
3.891646e+003,-3.662130e-003
3.893574e+003,-3.694064e-003
3.895503e+003,-3.524639e-003
3.897431e+003,-3.670771e-003
3.899360e+003,-4.245060e-003
3.901288e+003,-4.251557e-003
3.903217e+003,-4.003072e-003
3.905145e+003,-3.742652e-003
3.907073e+003,-3.171940e-003
3.909002e+003,-3.482897e-003
3.910930e+003,-3.601342e-003
3.912859e+003,-3.743801e-003
3.914787e+003,-3.614355e-003
3.916716e+003,-3.105162e-003
3.918644e+003,-3.424254e-003
3.920573e+003,-3.726161e-003
3.922501e+003,-3.981305e-003
3.924430e+003,-4.319865e-003
3.926358e+003,-3.707895e-003
3.928287e+003,-3.456173e-003
3.930215e+003,-3.988035e-003
3.932144e+003,-3.828841e-003
3.934072e+003,-3.310627e-003
3.936000e+003,-3.732074e-003
3.937929e+003,-4.101616e-003
3.939857e+003,-3.671592e-003
3.941786e+003,-3.683847e-003
3.943714e+003,-3.867758e-003
3.945643e+003,-3.806080e-003
3.947571e+003,-3.974837e-003
3.949500e+003,-3.426720e-003
3.951428e+003,-2.672141e-003
3.953357e+003,-3.064071e-003
3.955285e+003,-3.442729e-003
3.957214e+003,-3.765186e-003
3.959142e+003,-3.527926e-003
3.961071e+003,-2.869253e-003
3.962999e+003,-2.841635e-003
3.964927e+003,-3.279256e-003
3.966856e+003,-3.397954e-003
3.968784e+003,-3.249593e-003
3.970713e+003,-3.050318e-003
3.972641e+003,-3.610576e-003
3.974570e+003,-4.100172e-003
3.976498e+003,-4.105391e-003
3.978427e+003,-3.096675e-003
3.980355e+003,-3.165723e-003
3.982284e+003,-3.733684e-003
3.984212e+003,-3.340714e-003
3.986141e+003,-3.028668e-003
3.988069e+003,-3.374447e-003
3.989998e+003,-3.915440e-003
3.991926e+003,-4.397936e-003
3.993854e+003,-4.475961e-003
3.995783e+003,-4.248440e-003
3.997711e+003,-3.718014e-003
3.999640e+003,-3.664561e-003
4.001568e+003,0.000000e+000
