3.991927e+002,0.000000e+000
4.011211e+002,0.000000e+000
4.030496e+002,0.000000e+000
4.049781e+002,0.000000e+000
4.069065e+002,0.000000e+000
4.088350e+002,0.000000e+000
4.107635e+002,0.000000e+000
4.126919e+002,0.000000e+000
4.146204e+002,0.000000e+000
4.165489e+002,0.000000e+000
4.184773e+002,0.000000e+000
4.204058e+002,0.000000e+000
4.223343e+002,0.000000e+000
4.242627e+002,0.000000e+000
4.261912e+002,0.000000e+000
4.281197e+002,0.000000e+000
4.300481e+002,0.000000e+000
4.319766e+002,0.000000e+000
4.339051e+002,0.000000e+000
4.358335e+002,0.000000e+000
4.377620e+002,0.000000e+000
4.396905e+002,0.000000e+000
4.416189e+002,0.000000e+000
4.435474e+002,0.000000e+000
4.454759e+002,0.000000e+000
4.474043e+002,0.000000e+000
4.493328e+002,0.000000e+000
4.512613e+002,0.000000e+000
4.531897e+002,0.000000e+000
4.551182e+002,0.000000e+000
4.570467e+002,0.000000e+000
4.589751e+002,0.000000e+000
4.609036e+002,0.000000e+000
4.628321e+002,0.000000e+000
4.647605e+002,0.000000e+000
4.666890e+002,0.000000e+000
4.686175e+002,0.000000e+000
4.705459e+002,0.000000e+000
4.724744e+002,0.000000e+000
4.744029e+002,0.000000e+000
4.763313e+002,0.000000e+000
4.782598e+002,0.000000e+000
4.801883e+002,0.000000e+000
4.821167e+002,0.000000e+000
4.840452e+002,0.000000e+000
4.859737e+002,0.000000e+000
4.879021e+002,0.000000e+000
4.898306e+002,0.000000e+000
4.917591e+002,0.000000e+000
4.936875e+002,0.000000e+000
4.956160e+002,0.000000e+000
4.975445e+002,0.000000e+000
4.994729e+002,0.000000e+000
5.014014e+002,0.000000e+000
5.033299e+002,0.000000e+000
5.052583e+002,0.000000e+000
5.071868e+002,0.000000e+000
5.091153e+002,0.000000e+000
5.110437e+002,0.000000e+000
5.129722e+002,0.000000e+000
5.149006e+002,0.000000e+000
5.168291e+002,0.000000e+000
5.187576e+002,0.000000e+000
5.206860e+002,0.000000e+000
5.226145e+002,0.000000e+000
5.245430e+002,0.000000e+000
5.264714e+002,0.000000e+000
5.283999e+002,0.000000e+000
5.303284e+002,0.000000e+000
5.322568e+002,0.000000e+000
5.341853e+002,0.000000e+000
5.361138e+002,0.000000e+000
5.380422e+002,0.000000e+000
5.399707e+002,0.000000e+000
5.418992e+002,0.000000e+000
5.438276e+002,0.000000e+000
5.457561e+002,0.000000e+000
5.476846e+002,0.000000e+000
5.496130e+002,0.000000e+000
5.515415e+002,0.000000e+000
5.534700e+002,0.000000e+000
5.553984e+002,0.000000e+000
5.573269e+002,0.000000e+000
5.592554e+002,0.000000e+000
5.611838e+002,0.000000e+000
5.631123e+002,0.000000e+000
5.650408e+002,0.000000e+000
5.669692e+002,0.000000e+000
5.688977e+002,0.000000e+000
5.708262e+002,0.000000e+000
5.727546e+002,0.000000e+000
5.746831e+002,0.000000e+000
5.766116e+002,0.000000e+000
5.785400e+002,0.000000e+000
5.804685e+002,0.000000e+000
5.823970e+002,0.000000e+000
5.843254e+002,0.000000e+000
5.862539e+002,0.000000e+000
5.881824e+002,0.000000e+000
5.901108e+002,0.000000e+000
5.920393e+002,0.000000e+000
5.939678e+002,0.000000e+000
5.958962e+002,0.000000e+000
5.978247e+002,0.000000e+000
5.997532e+002,0.000000e+000
6.016816e+002,0.000000e+000
6.036101e+002,0.000000e+000
6.055386e+002,0.000000e+000
6.074670e+002,0.000000e+000
6.093955e+002,0.000000e+000
6.113240e+002,0.000000e+000
6.132524e+002,0.000000e+000
6.151809e+002,0.000000e+000
6.171094e+002,0.000000e+000
6.190378e+002,0.000000e+000
6.209663e+002,0.000000e+000
6.228948e+002,0.000000e+000
6.248232e+002,0.000000e+000
6.267517e+002,0.000000e+000
6.286802e+002,0.000000e+000
6.306086e+002,0.000000e+000
6.325371e+002,0.000000e+000
6.344656e+002,0.000000e+000
6.363940e+002,0.000000e+000
6.383225e+002,0.000000e+000
6.402510e+002,0.000000e+000
6.421794e+002,0.000000e+000
6.441079e+002,0.000000e+000
6.460364e+002,0.000000e+000
6.479648e+002,0.000000e+000
6.498933e+002,3.825684e-001
6.518218e+002,3.802480e-001
6.537502e+002,3.772983e-001
6.556787e+002,3.755268e-001
6.576072e+002,3.729105e-001
6.595356e+002,3.700853e-001
6.614641e+002,3.677717e-001
6.633926e+002,3.650728e-001
6.653210e+002,3.623698e-001
6.672495e+002,3.602151e-001
6.691780e+002,3.582430e-001
6.711064e+002,3.561619e-001
6.730349e+002,3.556276e-001
6.749634e+002,3.530096e-001
6.768918e+002,3.479154e-001
6.788203e+002,3.448114e-001
6.807488e+002,3.436472e-001
6.826772e+002,3.422442e-001
6.846057e+002,3.394455e-001
6.865342e+002,3.362218e-001
6.884626e+002,3.337286e-001
6.903911e+002,3.309006e-001
6.923196e+002,3.286789e-001
6.942480e+002,3.251719e-001
6.961765e+002,3.225926e-001
6.981050e+002,3.205628e-001
7.000334e+002,3.182673e-001
7.019619e+002,3.159519e-001
7.038904e+002,3.127527e-001
7.058188e+002,3.098359e-001
7.077473e+002,3.067389e-001
7.096758e+002,3.039124e-001
7.116042e+002,3.010416e-001
7.135327e+002,2.996381e-001
7.154612e+002,2.978346e-001
7.173896e+002,2.958184e-001
7.193181e+002,2.932027e-001
7.212466e+002,2.898383e-001
7.231750e+002,2.865030e-001
7.251035e+002,2.847931e-001
7.270320e+002,2.826434e-001
7.289604e+002,2.795803e-001
7.308889e+002,2.766038e-001
7.328174e+002,2.742270e-001
7.347458e+002,2.723074e-001
7.366743e+002,2.704425e-001
7.386028e+002,2.670748e-001
7.405313e+002,2.633928e-001
7.424597e+002,2.609803e-001
7.443882e+002,2.591884e-001
7.463167e+002,2.562594e-001
7.482451e+002,2.533436e-001
7.501736e+002,2.510430e-001
7.521021e+002,2.485159e-001
7.540305e+002,2.448584e-001
7.559590e+002,2.416605e-001
7.578875e+002,2.404362e-001
7.598159e+002,2.384926e-001
7.617444e+002,2.362416e-001
7.636729e+002,2.349669e-001
7.656013e+002,2.327932e-001
7.675298e+002,2.297136e-001
7.694583e+002,2.261382e-001
7.713867e+002,2.233941e-001
7.733152e+002,2.217958e-001
7.752437e+002,2.194660e-001
7.771721e+002,2.168393e-001
7.791006e+002,2.139385e-001
7.810291e+002,2.110480e-001
7.829575e+002,2.078929e-001
7.848860e+002,2.047897e-001
7.868145e+002,2.012856e-001
7.887429e+002,1.983278e-001
7.906714e+002,1.959198e-001
7.925999e+002,1.932963e-001
7.945283e+002,1.905570e-001
7.964568e+002,1.866243e-001
7.983853e+002,1.834336e-001
8.003137e+002,1.826512e-001
8.022422e+002,1.815936e-001
8.041707e+002,1.793669e-001
8.060991e+002,1.769884e-001
8.080276e+002,1.752407e-001
8.099561e+002,1.724833e-001
8.118845e+002,1.691103e-001
8.138130e+002,1.673327e-001
8.157415e+002,1.657796e-001
8.176699e+002,1.632087e-001
8.195984e+002,1.606682e-001
8.215269e+002,1.584241e-001
8.234553e+002,1.567962e-001
8.253838e+002,1.555583e-001
8.273123e+002,1.542130e-001
8.292407e+002,1.531671e-001
8.311692e+002,1.519819e-001
8.330977e+002,1.502105e-001
8.350261e+002,1.475924e-001
8.369546e+002,1.454722e-001
8.388831e+002,1.434830e-001
8.408115e+002,1.414903e-001
8.427400e+002,1.393013e-001
8.446685e+002,1.366618e-001
8.465969e+002,1.341550e-001
8.485254e+002,1.316947e-001
8.504539e+002,1.295003e-001
8.523823e+002,1.276631e-001
8.543108e+002,1.260028e-001
8.562393e+002,1.240709e-001
8.581677e+002,1.219235e-001
8.600962e+002,1.206841e-001
8.620247e+002,1.200418e-001
8.639531e+002,1.184512e-001
8.658816e+002,1.154557e-001
8.678101e+002,1.134437e-001
8.697385e+002,1.116048e-001
8.716670e+002,1.091089e-001
8.735955e+002,1.069406e-001
8.755239e+002,1.065706e-001
8.774524e+002,1.057706e-001
8.793809e+002,1.040504e-001
8.813093e+002,1.022089e-001
8.832378e+002,1.007034e-001
8.851663e+002,9.957515e-002
8.870947e+002,9.856040e-002
8.890232e+002,9.740179e-002
8.909517e+002,9.594788e-002
8.928801e+002,9.393053e-002
8.948086e+002,9.231404e-002
8.967371e+002,9.099431e-002
8.986655e+002,8.955803e-002
9.005940e+002,8.827148e-002
9.025225e+002,8.678588e-002
9.044509e+002,8.516883e-002
9.063794e+002,8.400954e-002
9.083079e+002,8.298956e-002
9.102363e+002,8.154000e-002
9.121648e+002,8.026711e-002
9.140933e+002,7.945412e-002
9.160217e+002,7.848304e-002
9.179502e+002,7.744228e-002
9.198787e+002,7.685467e-002
9.218071e+002,7.543381e-002
9.237356e+002,7.402913e-002
9.256641e+002,7.278759e-002
9.275925e+002,7.200713e-002
9.295210e+002,7.147337e-002
9.314495e+002,7.079084e-002
9.333779e+002,6.982810e-002
9.353064e+002,6.855139e-002
9.372349e+002,6.708028e-002
9.391633e+002,6.582075e-002
9.410918e+002,6.528022e-002
9.430203e+002,6.495541e-002
9.449487e+002,6.421255e-002
9.468772e+002,6.319758e-002
9.488057e+002,6.300726e-002
9.507341e+002,6.291870e-002
9.526626e+002,6.216367e-002
9.545911e+002,6.103329e-002
9.565195e+002,6.036057e-002
9.584480e+002,5.995766e-002
9.603765e+002,5.969131e-002
9.623049e+002,5.889830e-002
9.642334e+002,5.832444e-002
9.661619e+002,5.837962e-002
9.680903e+002,5.783532e-002
9.700188e+002,5.768120e-002
9.719473e+002,5.804462e-002
9.738757e+002,5.800243e-002
9.758042e+002,5.810632e-002
9.777327e+002,5.808469e-002
9.796611e+002,5.791179e-002
9.815896e+002,5.760144e-002
9.835181e+002,5.718899e-002
9.854465e+002,5.746542e-002
9.873750e+002,5.781598e-002
9.893035e+002,5.782839e-002
9.912319e+002,5.771174e-002
9.931604e+002,5.738921e-002
9.950889e+002,5.651988e-002
9.970173e+002,5.584736e-002
9.989458e+002,5.566970e-002
1.000874e+003,5.574737e-002
1.002803e+003,5.603245e-002
1.004731e+003,5.548935e-002
1.006660e+003,5.491373e-002
1.008588e+003,5.547727e-002
1.010517e+003,5.674793e-002
1.012445e+003,5.762187e-002
1.014374e+003,5.783691e-002
1.016302e+003,5.758665e-002
1.018230e+003,5.696166e-002
1.020159e+003,5.654366e-002
1.022087e+003,5.640442e-002
1.024016e+003,5.593208e-002
1.025944e+003,5.568484e-002
1.027873e+003,5.631893e-002
1.029801e+003,5.792205e-002
1.031730e+003,5.923365e-002
1.033658e+003,5.942224e-002
1.035587e+003,5.959024e-002
1.037515e+003,6.044175e-002
1.039444e+003,6.081717e-002
1.041372e+003,6.123431e-002
1.043301e+003,6.142091e-002
1.045229e+003,6.140110e-002
1.047157e+003,6.262612e-002
1.049086e+003,6.383418e-002
1.051014e+003,6.371618e-002
1.052943e+003,6.395391e-002
1.054871e+003,6.398462e-002
1.056800e+003,6.269639e-002
1.058728e+003,6.106266e-002
1.060657e+003,6.005650e-002
1.062585e+003,5.954410e-002
1.064514e+003,5.912046e-002
1.066442e+003,5.802235e-002
1.068371e+003,5.652513e-002
1.070299e+003,5.608346e-002
1.072228e+003,5.650547e-002
1.074156e+003,5.667381e-002
1.076084e+003,5.672724e-002
1.078013e+003,5.617037e-002
1.079941e+003,5.619892e-002
1.081870e+003,5.572077e-002
1.083798e+003,5.557607e-002
1.085727e+003,5.519537e-002
1.087655e+003,5.452933e-002
1.089584e+003,5.449259e-002
1.091512e+003,5.402427e-002
1.093441e+003,5.297523e-002
1.095369e+003,5.187342e-002
1.097298e+003,5.060445e-002
1.099226e+003,4.988273e-002
1.101155e+003,4.943217e-002
1.103083e+003,4.839200e-002
1.105011e+003,4.736403e-002
1.106940e+003,4.708311e-002
1.108868e+003,4.645173e-002
1.110797e+003,4.603948e-002
1.112725e+003,4.642687e-002
1.114654e+003,4.606645e-002
1.116582e+003,4.601594e-002
1.118511e+003,4.621277e-002
1.120439e+003,4.569973e-002
1.122368e+003,4.522837e-002
1.124296e+003,4.542521e-002
1.126225e+003,4.567713e-002
1.128153e+003,4.548157e-002
1.130082e+003,4.499071e-002
1.132010e+003,4.461844e-002
1.133938e+003,4.454563e-002
1.135867e+003,4.512509e-002
1.137795e+003,4.521263e-002
1.139724e+003,4.509840e-002
1.141652e+003,4.475961e-002
1.143581e+003,4.418768e-002
1.145509e+003,4.371455e-002
1.147438e+003,4.297433e-002
1.149366e+003,4.239660e-002
1.151295e+003,4.215632e-002
1.153223e+003,4.191640e-002
1.155152e+003,4.158030e-002
1.157080e+003,4.086533e-002
1.159009e+003,4.051295e-002
1.160937e+003,4.014358e-002
1.162865e+003,3.989467e-002
1.164794e+003,3.976001e-002
1.166722e+003,3.973144e-002
1.168651e+003,3.968532e-002
1.170579e+003,3.926715e-002
1.172508e+003,3.904752e-002
1.174436e+003,3.927669e-002
1.176365e+003,3.965563e-002
1.178293e+003,3.985432e-002
1.180222e+003,3.994679e-002
1.182150e+003,4.020882e-002
1.184079e+003,4.052579e-002
1.186007e+003,4.089777e-002
1.187936e+003,4.114507e-002
1.189864e+003,4.150169e-002
1.191792e+003,4.202045e-002
1.193721e+003,4.198209e-002
1.195649e+003,4.204567e-002
1.197578e+003,4.273728e-002
1.199506e+003,4.302584e-002
1.201435e+003,4.315914e-002
1.203363e+003,4.339814e-002
1.205292e+003,4.342022e-002
1.207220e+003,4.353708e-002
1.209149e+003,4.381756e-002
1.211077e+003,4.412136e-002
1.213006e+003,4.408193e-002
1.214934e+003,4.398762e-002
1.216863e+003,4.424711e-002
1.218791e+003,4.453337e-002
1.220719e+003,4.478066e-002
1.222648e+003,4.485799e-002
1.224576e+003,4.482279e-002
1.226505e+003,4.520910e-002
1.228433e+003,4.574914e-002
1.230362e+003,4.588769e-002
1.232290e+003,4.603406e-002
1.234219e+003,4.605643e-002
1.236147e+003,4.590736e-002
1.238076e+003,4.614647e-002
1.240004e+003,4.624845e-002
1.241933e+003,4.641338e-002
1.243861e+003,4.657568e-002
1.245790e+003,4.657273e-002
1.247718e+003,4.652275e-002
1.249646e+003,4.661765e-002
1.251575e+003,4.649004e-002
1.253503e+003,4.624778e-002
1.255432e+003,4.619641e-002
1.257360e+003,4.603546e-002
1.259289e+003,4.627524e-002
1.261217e+003,4.642853e-002
1.263146e+003,4.609445e-002
1.265074e+003,4.580613e-002
1.267003e+003,4.599454e-002
1.268931e+003,4.673062e-002
1.270860e+003,4.732313e-002
1.272788e+003,4.744608e-002
1.274717e+003,4.757856e-002
1.276645e+003,4.790228e-002
1.278573e+003,4.797192e-002
1.280502e+003,4.806880e-002
1.282430e+003,4.789884e-002
1.284359e+003,4.739500e-002
1.286287e+003,4.675837e-002
1.288216e+003,4.649627e-002
1.290144e+003,4.600275e-002
1.292073e+003,4.520675e-002
1.294001e+003,4.478168e-002
1.295930e+003,4.412272e-002
1.297858e+003,4.330844e-002
1.299787e+003,4.288344e-002
1.301715e+003,4.278573e-002
1.303644e+003,4.247720e-002
1.305572e+003,4.187104e-002
1.307500e+003,4.134317e-002
1.309429e+003,4.089788e-002
1.311357e+003,4.064198e-002
1.313286e+003,4.038820e-002
1.315214e+003,4.037457e-002
1.317143e+003,4.051593e-002
1.319071e+003,4.017978e-002
1.321000e+003,4.000659e-002
1.322928e+003,3.981368e-002
1.324857e+003,4.005957e-002
1.326785e+003,4.014442e-002
1.328714e+003,3.980907e-002
1.330642e+003,3.969498e-002
1.332571e+003,3.988374e-002
1.334499e+003,4.012886e-002
1.336427e+003,4.009115e-002
1.338356e+003,3.985014e-002
1.340284e+003,3.995116e-002
1.342213e+003,4.006153e-002
1.344141e+003,4.021515e-002
1.346070e+003,4.038369e-002
1.347998e+003,4.038995e-002
1.349927e+003,4.058857e-002
1.351855e+003,4.051582e-002
1.353784e+003,4.054234e-002
1.355712e+003,4.084433e-002
1.357641e+003,4.143148e-002
1.359569e+003,4.197997e-002
1.361498e+003,4.226737e-002
1.363426e+003,4.245392e-002
1.365354e+003,4.245560e-002
1.367283e+003,4.226069e-002
1.369211e+003,4.230225e-002
1.371140e+003,4.238878e-002
1.373068e+003,4.248666e-002
1.374997e+003,4.251534e-002
1.376925e+003,4.239580e-002
1.378854e+003,4.233794e-002
1.380782e+003,4.263770e-002
1.382711e+003,4.280156e-002
1.384639e+003,4.274792e-002
1.386568e+003,4.275385e-002
1.388496e+003,4.254451e-002
1.390425e+003,4.242228e-002
1.392353e+003,4.242283e-002
1.394281e+003,4.239974e-002
1.396210e+003,4.204366e-002
1.398138e+003,4.182832e-002
1.400067e+003,4.182139e-002
1.401995e+003,4.184236e-002
1.403924e+003,4.194829e-002
1.405852e+003,4.185568e-002
1.407781e+003,4.199234e-002
1.409709e+003,4.200096e-002
1.411638e+003,4.164046e-002
1.413566e+003,4.154967e-002
1.415495e+003,4.141526e-002
1.417423e+003,4.106152e-002
1.419352e+003,4.094535e-002
1.421280e+003,4.103136e-002
1.423208e+003,4.094998e-002
1.425137e+003,4.085652e-002
1.427065e+003,4.093203e-002
1.428994e+003,4.060764e-002
1.430922e+003,4.016376e-002
1.432851e+003,4.010484e-002
1.434779e+003,4.023660e-002
1.436708e+003,4.014213e-002
1.438636e+003,3.981637e-002
1.440565e+003,3.956968e-002
1.442493e+003,3.953806e-002
1.444422e+003,3.934325e-002
1.446350e+003,3.903208e-002
1.448279e+003,3.910626e-002
1.450207e+003,3.929189e-002
1.452135e+003,3.894756e-002
1.454064e+003,3.841377e-002
1.455992e+003,3.839828e-002
1.457921e+003,3.836860e-002
1.459849e+003,3.805993e-002
1.461778e+003,3.797028e-002
1.463706e+003,3.801050e-002
1.465635e+003,3.762533e-002
1.467563e+003,3.704254e-002
1.469492e+003,3.695270e-002
1.471420e+003,3.669779e-002
1.473349e+003,3.628479e-002
1.475277e+003,3.623836e-002
1.477206e+003,3.608088e-002
1.479134e+003,3.585901e-002
1.481063e+003,3.549602e-002
1.482991e+003,3.531624e-002
1.484919e+003,3.514028e-002
1.486848e+003,3.506340e-002
1.488776e+003,3.504185e-002
1.490705e+003,3.483821e-002
1.492633e+003,3.465902e-002
1.494562e+003,3.470876e-002
1.496490e+003,3.495530e-002
1.498419e+003,3.513927e-002
1.500347e+003,3.529730e-002
1.502276e+003,3.578434e-002
1.504204e+003,3.623493e-002
1.506133e+003,3.652191e-002
1.508061e+003,3.689531e-002
1.509990e+003,3.740917e-002
1.511918e+003,3.815927e-002
1.513846e+003,3.875634e-002
1.515775e+003,3.882464e-002
1.517703e+003,3.836817e-002
1.519632e+003,3.806699e-002
1.521560e+003,3.765160e-002
1.523489e+003,3.706928e-002
1.525417e+003,3.658250e-002
1.527346e+003,3.641319e-002
1.529274e+003,3.619820e-002
1.531203e+003,3.600207e-002
1.533131e+003,3.606612e-002
1.535060e+003,3.629181e-002
1.536988e+003,3.655542e-002
1.538917e+003,3.684784e-002
1.540845e+003,3.728329e-002
1.542773e+003,3.767032e-002
1.544702e+003,3.818217e-002
1.546630e+003,3.875211e-002
1.548559e+003,3.887203e-002
1.550487e+003,3.899406e-002
1.552416e+003,3.948718e-002
1.554344e+003,4.028949e-002
1.556273e+003,4.119341e-002
1.558201e+003,4.204498e-002
1.560130e+003,4.293457e-002
1.562058e+003,4.397101e-002
1.563987e+003,4.486420e-002
1.565915e+003,4.596684e-002
1.567844e+003,4.710264e-002
1.569772e+003,4.792814e-002
1.571700e+003,4.889688e-002
1.573629e+003,5.014540e-002
1.575557e+003,5.135350e-002
1.577486e+003,5.277236e-002
1.579414e+003,5.411175e-002
1.581343e+003,5.579514e-002
1.583271e+003,5.746791e-002
1.585200e+003,5.888112e-002
1.587128e+003,6.039682e-002
1.589057e+003,6.206515e-002
1.590985e+003,6.374231e-002
1.592914e+003,6.581733e-002
1.594842e+003,6.805757e-002
1.596771e+003,7.048531e-002
1.598699e+003,7.312161e-002
1.600627e+003,7.576008e-002
1.602556e+003,7.850416e-002
1.604484e+003,8.161748e-002
1.606413e+003,8.488492e-002
1.608341e+003,8.779864e-002
1.610270e+003,9.052234e-002
1.612198e+003,9.341443e-002
1.614127e+003,9.617832e-002
1.616055e+003,9.890000e-002
1.617984e+003,1.019640e-001
1.619912e+003,1.051854e-001
1.621841e+003,1.081277e-001
1.623769e+003,1.107364e-001
1.625698e+003,1.130260e-001
1.627626e+003,1.151131e-001
1.629554e+003,1.172494e-001
1.631483e+003,1.188555e-001
1.633411e+003,1.199789e-001
1.635340e+003,1.205873e-001
1.637268e+003,1.206953e-001
1.639197e+003,1.206850e-001
1.641125e+003,1.200729e-001
1.643054e+003,1.189846e-001
1.644982e+003,1.177921e-001
1.646911e+003,1.165468e-001
1.648839e+003,1.148874e-001
1.650768e+003,1.129740e-001
1.652696e+003,1.108741e-001
1.654625e+003,1.087774e-001
1.656553e+003,1.065800e-001
1.658481e+003,1.041609e-001
1.660410e+003,1.015446e-001
1.662338e+003,9.875685e-002
1.664267e+003,9.630772e-002
1.666195e+003,9.354786e-002
1.668124e+003,9.092262e-002
1.670052e+003,8.847620e-002
1.671981e+003,8.583947e-002
1.673909e+003,8.319020e-002
1.675838e+003,8.071389e-002
1.677766e+003,7.848756e-002
1.679695e+003,7.608897e-002
1.681623e+003,7.366960e-002
1.683552e+003,7.128631e-002
1.685480e+003,6.901743e-002
1.687408e+003,6.729061e-002
1.689337e+003,6.571373e-002
1.691265e+003,6.404766e-002
1.693194e+003,6.207441e-002
1.695122e+003,6.026608e-002
1.697051e+003,5.885573e-002
1.698979e+003,5.744787e-002
1.700908e+003,5.620337e-002
1.702836e+003,5.510008e-002
1.704765e+003,5.382751e-002
1.706693e+003,5.251980e-002
1.708622e+003,5.135861e-002
1.710550e+003,5.020327e-002
1.712479e+003,4.918708e-002
1.714407e+003,4.826297e-002
1.716335e+003,4.710334e-002
1.718264e+003,4.604147e-002
1.720192e+003,4.486724e-002
1.722121e+003,4.346383e-002
1.724049e+003,4.179468e-002
1.725978e+003,3.963022e-002
1.727906e+003,3.748928e-002
1.729835e+003,3.533138e-002
1.731763e+003,3.303407e-002
1.733692e+003,3.094606e-002
1.735620e+003,2.923978e-002
1.737549e+003,2.782205e-002
1.739477e+003,2.641052e-002
1.741406e+003,2.497630e-002
1.743334e+003,2.404583e-002
1.745262e+003,2.303838e-002
1.747191e+003,2.157428e-002
1.749119e+003,2.053325e-002
1.751048e+003,1.980706e-002
1.752976e+003,1.923230e-002
1.754905e+003,1.856666e-002
1.756833e+003,1.767155e-002
1.758762e+003,1.702827e-002
1.760690e+003,1.660732e-002
1.762619e+003,1.612862e-002
1.764547e+003,1.572894e-002
1.766476e+003,1.517232e-002
1.768404e+003,1.464249e-002
1.770333e+003,1.400423e-002
1.772261e+003,1.357214e-002
1.774189e+003,1.336451e-002
1.776118e+003,1.301554e-002
1.778046e+003,1.266395e-002
1.779975e+003,1.223961e-002
1.781903e+003,1.172971e-002
1.783832e+003,1.118672e-002
1.785760e+003,1.079445e-002
1.787689e+003,1.066200e-002
1.789617e+003,1.036256e-002
1.791546e+003,1.003946e-002
1.793474e+003,9.691658e-003
1.795403e+003,9.538641e-003
1.797331e+003,9.455295e-003
1.799260e+003,9.146876e-003
1.801188e+003,8.824778e-003
1.803116e+003,8.729804e-003
1.805045e+003,8.640530e-003
1.806973e+003,8.592199e-003
1.808902e+003,8.394097e-003
1.810830e+003,8.196457e-003
1.812759e+003,8.144091e-003
1.814687e+003,7.997626e-003
1.816616e+003,7.915385e-003
1.818544e+003,7.748184e-003
1.820473e+003,7.581520e-003
1.822401e+003,7.285952e-003
1.824330e+003,7.193066e-003
1.826258e+003,7.404943e-003
1.828187e+003,7.500302e-003
1.830115e+003,7.386272e-003
1.832043e+003,7.310718e-003
1.833972e+003,7.170293e-003
1.835900e+003,6.873658e-003
1.837829e+003,6.642895e-003
1.839757e+003,6.705344e-003
1.841686e+003,6.916311e-003
1.843614e+003,6.925569e-003
1.845543e+003,6.803376e-003
1.847471e+003,6.595694e-003
1.849400e+003,6.535817e-003
1.851328e+003,6.635426e-003
1.853257e+003,6.638756e-003
1.855185e+003,6.482809e-003
1.857114e+003,6.470331e-003
1.859042e+003,6.719679e-003
1.860970e+003,6.551323e-003
1.862899e+003,6.216724e-003
1.864827e+003,6.374694e-003
1.866756e+003,6.484726e-003
1.868684e+003,6.227547e-003
1.870613e+003,6.387875e-003
1.872541e+003,6.538407e-003
1.874470e+003,6.287651e-003
1.876398e+003,6.271010e-003
1.878327e+003,6.259446e-003
1.880255e+003,6.268489e-003
1.882183e+003,6.311856e-003
1.884112e+003,6.357849e-003
1.886040e+003,6.440468e-003
1.887969e+003,6.538710e-003
1.889897e+003,6.521522e-003
1.891826e+003,6.549574e-003
1.893754e+003,6.453482e-003
1.895683e+003,6.404352e-003
1.897611e+003,6.408622e-003
1.899540e+003,6.466531e-003
1.901468e+003,6.549675e-003
1.903397e+003,6.496632e-003
1.905325e+003,6.493370e-003
1.907254e+003,6.582978e-003
1.909182e+003,6.645418e-003
1.911110e+003,6.744648e-003
1.913039e+003,6.673849e-003
1.914967e+003,6.528585e-003
1.916896e+003,6.462529e-003
1.918824e+003,6.491957e-003
1.920753e+003,6.710661e-003
1.922681e+003,6.911193e-003
1.924610e+003,7.065342e-003
1.926538e+003,7.092655e-003
1.928467e+003,6.956712e-003
1.930395e+003,6.728664e-003
1.932324e+003,6.699825e-003
1.934252e+003,6.852485e-003
1.936181e+003,6.949001e-003
1.938109e+003,7.050221e-003
1.940037e+003,7.219073e-003
1.941966e+003,7.469390e-003
1.943894e+003,7.454323e-003
1.945823e+003,7.234132e-003
1.947751e+003,7.210078e-003
1.949680e+003,7.204486e-003
1.951608e+003,7.468480e-003
1.953537e+003,7.744373e-003
1.955465e+003,7.666598e-003
1.957394e+003,7.533880e-003
1.959322e+003,7.729633e-003
1.961251e+003,7.785424e-003
1.963179e+003,7.750073e-003
1.965108e+003,7.832856e-003
1.967036e+003,7.939140e-003
1.968964e+003,8.036304e-003
1.970893e+003,8.080387e-003
1.972821e+003,8.075122e-003
1.974750e+003,8.131869e-003
1.976678e+003,8.159689e-003
1.978607e+003,8.195040e-003
1.980535e+003,8.197504e-003
1.982464e+003,8.309552e-003
1.984392e+003,8.429332e-003
1.986321e+003,8.513224e-003
1.988249e+003,8.654050e-003
1.990178e+003,8.871444e-003
1.992106e+003,8.847299e-003
1.994035e+003,8.684033e-003
1.995963e+003,8.885479e-003
1.997891e+003,9.251452e-003
1.999820e+003,9.594970e-003
2.001748e+003,9.528175e-003
2.003677e+003,9.215982e-003
2.005605e+003,9.294203e-003
2.007534e+003,9.720492e-003
2.009462e+003,9.901810e-003
2.011391e+003,9.888556e-003
2.013319e+003,9.751769e-003
2.015248e+003,9.658523e-003
2.017176e+003,9.784605e-003
2.019105e+003,9.904081e-003
2.021033e+003,9.880454e-003
2.022962e+003,1.013194e-002
2.024890e+003,1.040919e-002
2.026818e+003,1.038021e-002
2.028747e+003,1.054024e-002
2.030675e+003,1.069759e-002
2.032604e+003,1.067629e-002
2.034532e+003,1.073148e-002
2.036461e+003,1.099722e-002
2.038389e+003,1.098872e-002
2.040318e+003,1.099002e-002
2.042246e+003,1.101499e-002
2.044175e+003,1.097775e-002
2.046103e+003,1.090938e-002
2.048032e+003,1.097170e-002
2.049960e+003,1.111482e-002
2.051889e+003,1.131712e-002
2.053817e+003,1.126540e-002
2.055746e+003,1.131185e-002
2.057674e+003,1.141321e-002
2.059603e+003,1.140681e-002
2.061531e+003,1.148557e-002
2.063459e+003,1.142672e-002
2.065388e+003,1.151820e-002
2.067316e+003,1.169291e-002
2.069245e+003,1.145900e-002
2.071173e+003,1.146526e-002
2.073102e+003,1.190754e-002
2.075030e+003,1.210603e-002
2.076959e+003,1.203551e-002
2.078887e+003,1.202277e-002
2.080816e+003,1.208344e-002
2.082744e+003,1.210194e-002
2.084673e+003,1.220423e-002
2.086601e+003,1.213819e-002
2.088530e+003,1.213301e-002
2.090458e+003,1.208678e-002
2.092386e+003,1.223088e-002
2.094315e+003,1.239491e-002
2.096243e+003,1.222819e-002
2.098172e+003,1.234190e-002
2.100100e+003,1.260951e-002
2.102029e+003,1.263325e-002
2.103957e+003,1.250426e-002
2.105886e+003,1.246617e-002
2.107814e+003,1.239375e-002
2.109743e+003,1.226394e-002
2.111671e+003,1.224663e-002
2.113600e+003,1.229700e-002
2.115528e+003,1.237663e-002
2.117457e+003,1.249000e-002
2.119385e+003,1.244629e-002
2.121313e+003,1.248745e-002
2.123242e+003,1.237998e-002
2.125170e+003,1.234503e-002
2.127099e+003,1.234858e-002
2.129027e+003,1.232686e-002
2.130956e+003,1.246099e-002
2.132884e+003,1.228548e-002
2.134813e+003,1.223463e-002
2.136741e+003,1.241727e-002
2.138670e+003,1.244718e-002
2.140598e+003,1.233126e-002
2.142527e+003,1.223722e-002
2.144455e+003,1.225331e-002
2.146384e+003,1.226156e-002
2.148312e+003,1.211765e-002
2.150240e+003,1.191970e-002
2.152169e+003,1.203874e-002
2.154097e+003,1.224206e-002
2.156026e+003,1.217683e-002
2.157954e+003,1.189147e-002
2.159883e+003,1.158203e-002
2.161811e+003,1.152320e-002
2.163740e+003,1.166691e-002
2.165668e+003,1.146937e-002
2.167597e+003,1.132059e-002
2.169525e+003,1.125612e-002
2.171454e+003,1.119753e-002
2.173382e+003,1.118040e-002
2.175311e+003,1.112634e-002
2.177239e+003,1.126768e-002
2.179167e+003,1.128723e-002
2.181096e+003,1.107892e-002
2.183024e+003,1.101238e-002
2.184953e+003,1.077754e-002
2.186881e+003,1.085329e-002
2.188810e+003,1.083919e-002
2.190738e+003,1.047863e-002
2.192667e+003,1.042870e-002
2.194595e+003,1.036677e-002
2.196524e+003,1.039287e-002
2.198452e+003,1.035401e-002
2.200381e+003,1.025721e-002
2.202309e+003,1.003274e-002
2.204238e+003,9.981071e-003
2.206166e+003,1.007215e-002
2.208094e+003,9.832392e-003
2.210023e+003,9.572376e-003
2.211951e+003,9.430440e-003
2.213880e+003,9.259846e-003
2.215808e+003,9.467622e-003
2.217737e+003,9.566076e-003
2.219665e+003,9.247323e-003
2.221594e+003,9.115812e-003
2.223522e+003,9.189380e-003
2.225451e+003,9.180581e-003
2.227379e+003,9.053456e-003
2.229308e+003,9.074128e-003
2.231236e+003,8.864004e-003
2.233165e+003,8.662500e-003
2.235093e+003,8.787482e-003
2.237021e+003,8.824879e-003
2.238950e+003,8.484808e-003
2.240878e+003,8.016964e-003
2.242807e+003,7.864098e-003
2.244735e+003,7.896016e-003
2.246664e+003,8.041435e-003
2.248592e+003,8.140242e-003
2.250521e+003,7.958544e-003
2.252449e+003,7.808195e-003
2.254378e+003,7.715973e-003
2.256306e+003,7.573967e-003
2.258235e+003,7.318535e-003
2.260163e+003,7.141291e-003
2.262092e+003,7.461806e-003
2.264020e+003,7.705855e-003
2.265948e+003,7.553434e-003
2.267877e+003,7.081507e-003
2.269805e+003,6.901161e-003
2.271734e+003,7.196535e-003
2.273662e+003,7.113772e-003
2.275591e+003,6.658641e-003
2.277519e+003,6.635359e-003
2.279448e+003,6.569858e-003
2.281376e+003,6.354588e-003
2.283305e+003,6.336432e-003
2.285233e+003,6.381823e-003
2.287162e+003,6.163251e-003
2.289090e+003,6.178240e-003
2.291019e+003,6.226908e-003
2.292947e+003,6.043020e-003
2.294875e+003,6.070101e-003
2.296804e+003,6.027330e-003
2.298732e+003,5.918287e-003
2.300661e+003,6.036771e-003
2.302589e+003,5.984059e-003
2.304518e+003,5.725363e-003
2.306446e+003,5.566219e-003
2.308375e+003,5.652313e-003
2.310303e+003,5.510443e-003
2.312232e+003,5.317600e-003
2.314160e+003,5.295765e-003
2.316089e+003,5.158170e-003
2.318017e+003,5.160349e-003
2.319946e+003,5.083337e-003
2.321874e+003,5.070933e-003
2.323802e+003,5.203605e-003
2.325731e+003,5.245121e-003
2.327659e+003,4.971247e-003
2.329588e+003,4.745143e-003
2.331516e+003,4.797135e-003
2.333445e+003,4.891052e-003
2.335373e+003,4.781791e-003
2.337302e+003,4.720389e-003
2.339230e+003,4.758911e-003
2.341159e+003,4.624165e-003
2.343087e+003,4.416116e-003
2.345016e+003,4.291716e-003
2.346944e+003,4.019311e-003
2.348873e+003,4.036300e-003
2.350801e+003,4.131959e-003
2.352729e+003,4.127610e-003
2.354658e+003,4.138114e-003
2.356586e+003,4.104497e-003
2.358515e+003,4.117475e-003
2.360443e+003,4.176852e-003
2.362372e+003,4.005767e-003
2.364300e+003,3.974401e-003
2.366229e+003,3.946982e-003
2.368157e+003,3.878409e-003
2.370086e+003,3.625074e-003
2.372014e+003,3.559826e-003
2.373943e+003,3.745574e-003
2.375871e+003,3.871121e-003
2.377800e+003,3.599582e-003
2.379728e+003,3.225653e-003
2.381656e+003,3.193608e-003
2.383585e+003,3.176185e-003
2.385513e+003,3.259870e-003
2.387442e+003,3.334622e-003
2.389370e+003,3.322202e-003
2.391299e+003,3.239273e-003
2.393227e+003,3.085642e-003
2.395156e+003,3.353655e-003
2.397084e+003,3.633126e-003
2.399013e+003,3.390052e-003
2.400941e+003,3.046500e-003
2.402870e+003,2.979671e-003
2.404798e+003,2.890970e-003
2.406727e+003,2.848511e-003
2.408655e+003,2.781178e-003
2.410583e+003,2.629243e-003
2.412512e+003,2.532715e-003
2.414440e+003,2.709888e-003
2.416369e+003,2.923993e-003
2.418297e+003,2.890370e-003
2.420226e+003,3.016871e-003
2.422154e+003,3.092183e-003
2.424083e+003,2.926428e-003
2.426011e+003,2.834070e-003
2.427940e+003,2.868423e-003
2.429868e+003,2.899242e-003
2.431797e+003,2.891304e-003
2.433725e+003,2.719591e-003
2.435654e+003,2.394193e-003
2.437582e+003,2.401690e-003
2.439510e+003,2.729594e-003
2.441439e+003,2.756302e-003
2.443367e+003,2.570310e-003
2.445296e+003,2.429311e-003
2.447224e+003,2.374370e-003
2.449153e+003,2.514918e-003
2.451081e+003,2.426645e-003
2.453010e+003,2.009683e-003
2.454938e+003,1.745958e-003
2.456867e+003,1.990876e-003
2.458795e+003,2.281629e-003
2.460724e+003,2.320701e-003
2.462652e+003,2.274201e-003
2.464581e+003,2.301481e-003
2.466509e+003,2.422747e-003
2.468438e+003,2.325498e-003
2.470366e+003,2.144852e-003
2.472294e+003,2.127937e-003
2.474223e+003,2.100035e-003
2.476151e+003,2.078760e-003
2.478080e+003,2.128769e-003
2.480008e+003,2.262444e-003
2.481937e+003,2.068839e-003
2.483865e+003,1.710163e-003
2.485794e+003,1.906004e-003
2.487722e+003,2.042439e-003
2.489651e+003,1.947905e-003
2.491579e+003,2.135995e-003
2.493508e+003,2.325298e-003
2.495436e+003,2.283261e-003
2.497365e+003,2.021700e-003
2.499293e+003,1.888233e-003
2.501221e+003,1.873757e-003
2.503150e+003,2.119247e-003
2.505078e+003,2.177785e-003
2.507007e+003,2.026061e-003
2.508935e+003,1.963848e-003
2.510864e+003,1.953097e-003
2.512792e+003,1.833028e-003
2.514721e+003,1.622387e-003
2.516649e+003,1.620624e-003
2.518578e+003,1.736809e-003
2.520506e+003,1.910131e-003
2.522435e+003,2.006787e-003
2.524363e+003,2.261011e-003
2.526292e+003,2.072202e-003
2.528220e+003,1.919516e-003
2.530148e+003,1.961851e-003
2.532077e+003,1.920914e-003
2.534005e+003,1.889697e-003
2.535934e+003,1.853492e-003
2.537862e+003,1.784816e-003
2.539791e+003,1.677798e-003
2.541719e+003,1.577025e-003
2.543648e+003,1.583077e-003
2.545576e+003,1.733050e-003
2.547505e+003,1.760962e-003
2.549433e+003,1.788742e-003
2.551362e+003,1.821748e-003
2.553290e+003,1.867800e-003
2.555219e+003,1.838851e-003
2.557147e+003,1.784450e-003
2.559075e+003,1.640047e-003
2.561004e+003,1.700184e-003
2.562932e+003,1.923443e-003
2.564861e+003,1.698521e-003
2.566789e+003,1.315191e-003
2.568718e+003,1.411249e-003
2.570646e+003,1.576293e-003
2.572575e+003,1.491037e-003
2.574503e+003,1.512017e-003
2.576432e+003,1.523222e-003
2.578360e+003,1.401243e-003
2.580289e+003,1.689640e-003
2.582217e+003,1.739105e-003
2.584146e+003,1.622619e-003
2.586074e+003,1.652819e-003
2.588002e+003,1.603264e-003
2.589931e+003,1.678430e-003
2.591859e+003,1.718979e-003
2.593788e+003,1.716750e-003
2.595716e+003,1.837886e-003
2.597645e+003,1.994937e-003
2.599573e+003,1.840647e-003
2.601502e+003,1.908833e-003
2.603430e+003,2.036846e-003
2.605359e+003,2.124174e-003
2.607287e+003,2.195535e-003
2.609216e+003,2.100468e-003
2.611144e+003,1.951233e-003
2.613073e+003,2.039044e-003
2.615001e+003,2.197433e-003
2.616929e+003,2.036946e-003
2.618858e+003,1.826839e-003
2.620786e+003,1.667287e-003
2.622715e+003,1.805777e-003
2.624643e+003,1.791936e-003
2.626572e+003,1.451108e-003
2.628500e+003,1.463974e-003
2.630429e+003,1.793034e-003
2.632357e+003,1.897152e-003
2.634286e+003,1.956159e-003
2.636214e+003,2.015308e-003
2.638143e+003,2.078361e-003
2.640071e+003,1.975231e-003
2.642000e+003,1.984285e-003
2.643928e+003,2.241061e-003
2.645856e+003,2.132599e-003
2.647785e+003,1.919782e-003
2.649713e+003,1.937388e-003
2.651642e+003,1.873724e-003
2.653570e+003,1.694197e-003
2.655499e+003,1.611678e-003
2.657427e+003,1.610447e-003
2.659356e+003,2.016407e-003
2.661284e+003,2.179716e-003
2.663213e+003,2.039476e-003
2.665141e+003,2.095141e-003
2.667070e+003,2.124874e-003
2.668998e+003,1.921113e-003
2.670927e+003,1.672676e-003
2.672855e+003,1.933660e-003
2.674783e+003,2.392294e-003
2.676712e+003,2.644511e-003
2.678640e+003,2.548812e-003
2.680569e+003,2.201562e-003
2.682497e+003,2.114652e-003
2.684426e+003,2.112754e-003
2.686354e+003,2.190406e-003
2.688283e+003,2.194769e-003
2.690211e+003,2.337391e-003
2.692140e+003,2.369572e-003
2.694068e+003,2.336358e-003
2.695997e+003,2.529449e-003
2.697925e+003,2.672481e-003
2.699854e+003,2.693551e-003
2.701782e+003,2.595342e-003
2.703710e+003,2.457134e-003
2.705639e+003,2.651345e-003
2.707567e+003,2.686517e-003
2.709496e+003,2.602976e-003
2.711424e+003,2.535181e-003
2.713353e+003,2.645378e-003
2.715281e+003,2.804688e-003
2.717210e+003,2.961089e-003
2.719138e+003,2.918056e-003
2.721067e+003,2.923559e-003
2.722995e+003,2.773008e-003
2.724924e+003,2.666180e-003
2.726852e+003,2.800953e-003
2.728781e+003,2.917588e-003
2.730709e+003,3.354389e-003
2.732637e+003,3.560060e-003
2.734566e+003,3.436372e-003
2.736494e+003,3.586018e-003
2.738423e+003,3.571852e-003
2.740351e+003,3.472643e-003
2.742280e+003,3.368247e-003
2.744208e+003,3.274526e-003
2.746137e+003,3.396097e-003
2.748065e+003,3.619895e-003
2.749994e+003,3.612177e-003
2.751922e+003,3.930197e-003
2.753851e+003,4.259659e-003
2.755779e+003,4.277394e-003
2.757708e+003,4.279167e-003
2.759636e+003,4.211880e-003
2.761564e+003,3.937386e-003
2.763493e+003,4.012389e-003
2.765421e+003,3.999915e-003
2.767350e+003,3.968482e-003
2.769278e+003,4.400853e-003
2.771207e+003,4.677415e-003
2.773135e+003,4.721327e-003
2.775064e+003,4.774153e-003
2.776992e+003,4.655545e-003
2.778921e+003,4.786984e-003
2.780849e+003,5.124037e-003
2.782778e+003,5.065402e-003
2.784706e+003,4.891353e-003
2.786635e+003,4.945441e-003
2.788563e+003,5.271348e-003
2.790491e+003,5.329810e-003
2.792420e+003,5.115253e-003
2.794348e+003,5.128295e-003
2.796277e+003,5.555849e-003
2.798205e+003,5.710926e-003
2.800134e+003,5.953691e-003
2.802062e+003,6.281364e-003
2.803991e+003,6.566360e-003
2.805919e+003,6.529123e-003
2.807848e+003,6.242068e-003
2.809776e+003,6.344636e-003
2.811705e+003,6.552299e-003
2.813633e+003,6.598890e-003
2.815562e+003,6.983479e-003
2.817490e+003,7.170563e-003
2.819418e+003,7.253404e-003
2.821347e+003,7.288209e-003
2.823275e+003,7.439323e-003
2.825204e+003,7.721740e-003
2.827132e+003,7.776418e-003
2.829061e+003,7.509472e-003
2.830989e+003,7.685551e-003
2.832918e+003,8.387003e-003
2.834846e+003,8.806012e-003
2.836775e+003,8.510589e-003
2.838703e+003,8.583817e-003
2.840632e+003,8.978423e-003
2.842560e+003,9.022500e-003
2.844489e+003,9.163864e-003
2.846417e+003,9.265228e-003
2.848345e+003,9.299620e-003
2.850274e+003,9.138416e-003
2.852202e+003,9.348706e-003
2.854131e+003,9.965882e-003
2.856059e+003,1.035876e-002
2.857988e+003,1.053084e-002
2.859916e+003,1.095583e-002
2.861845e+003,1.118696e-002
2.863773e+003,1.119281e-002
2.865702e+003,1.140937e-002
2.867630e+003,1.204229e-002
2.869558e+003,1.246804e-002
2.871487e+003,1.275658e-002
2.873415e+003,1.309257e-002
2.875344e+003,1.373996e-002
2.877272e+003,1.437656e-002
2.879201e+003,1.444832e-002
2.881129e+003,1.438338e-002
2.883058e+003,1.434772e-002
2.884986e+003,1.463789e-002
2.886915e+003,1.500446e-002
2.888843e+003,1.517469e-002
2.890771e+003,1.564182e-002
2.892700e+003,1.602461e-002
2.894628e+003,1.614255e-002
2.896557e+003,1.654935e-002
2.898485e+003,1.705132e-002
2.900414e+003,1.712456e-002
2.902342e+003,1.710023e-002
2.904271e+003,1.740514e-002
2.906199e+003,1.770706e-002
2.908128e+003,1.756544e-002
2.910056e+003,1.835514e-002
2.911985e+003,1.893597e-002
2.913913e+003,1.898457e-002
2.915842e+003,1.924592e-002
2.917770e+003,1.944914e-002
2.919698e+003,1.962849e-002
2.921627e+003,1.955563e-002
2.923555e+003,1.994466e-002
2.925484e+003,2.071340e-002
2.927412e+003,2.121875e-002
2.929341e+003,2.174936e-002
2.931269e+003,2.198031e-002
2.933198e+003,2.222802e-002
2.935126e+003,2.298744e-002
2.937055e+003,2.319249e-002
2.938983e+003,2.342424e-002
2.940912e+003,2.380331e-002
2.942840e+003,2.452195e-002
2.944769e+003,2.504488e-002
2.946697e+003,2.509620e-002
2.948625e+003,2.553387e-002
2.950554e+003,2.625506e-002
2.952482e+003,2.663284e-002
2.954411e+003,2.650363e-002
2.956339e+003,2.701867e-002
2.958268e+003,2.773424e-002
2.960196e+003,2.795992e-002
2.962125e+003,2.846921e-002
2.964053e+003,2.911334e-002
2.965982e+003,2.992061e-002
2.967910e+003,3.076133e-002
2.969839e+003,3.078185e-002
2.971767e+003,3.109535e-002
2.973696e+003,3.194730e-002
2.975624e+003,3.266615e-002
2.977552e+003,3.333635e-002
2.979481e+003,3.367465e-002
2.981409e+003,3.393181e-002
2.983338e+003,3.455514e-002
2.985266e+003,3.507195e-002
2.987195e+003,3.579334e-002
2.989123e+003,3.629264e-002
2.991052e+003,3.701999e-002
2.992980e+003,3.770310e-002
2.994909e+003,3.795137e-002
2.996837e+003,3.812070e-002
2.998766e+003,3.860237e-002
3.000694e+003,3.969970e-002
3.002623e+003,4.080778e-002
3.004551e+003,4.105981e-002
3.006479e+003,4.149207e-002
3.008408e+003,4.200658e-002
3.010336e+003,4.273059e-002
3.012265e+003,4.352199e-002
3.014193e+003,4.477621e-002
3.016122e+003,4.606700e-002
3.018050e+003,4.674472e-002
3.019979e+003,4.705918e-002
3.021907e+003,4.745498e-002
3.023836e+003,4.792174e-002
3.025764e+003,4.885869e-002
3.027693e+003,4.988166e-002
3.029621e+003,5.126964e-002
3.031550e+003,5.238087e-002
3.033478e+003,5.292796e-002
3.035406e+003,5.361636e-002
3.037335e+003,5.474930e-002
3.039263e+003,5.590962e-002
3.041192e+003,5.710033e-002
3.043120e+003,5.838322e-002
3.045049e+003,5.952647e-002
3.046977e+003,6.051834e-002
3.048906e+003,6.166532e-002
3.050834e+003,6.292387e-002
3.052763e+003,6.386462e-002
3.054691e+003,6.477471e-002
3.056620e+003,6.570217e-002
3.058548e+003,6.685518e-002
3.060477e+003,6.794713e-002
3.062405e+003,6.902493e-002
3.064333e+003,7.048683e-002
3.066262e+003,7.210280e-002
3.068190e+003,7.296413e-002
3.070119e+003,7.396010e-002
3.072047e+003,7.527541e-002
3.073976e+003,7.656294e-002
3.075904e+003,7.804746e-002
3.077833e+003,7.944747e-002
3.079761e+003,8.069725e-002
3.081690e+003,8.215657e-002
3.083618e+003,8.385690e-002
3.085547e+003,8.539787e-002
3.087475e+003,8.647366e-002
3.089404e+003,8.792273e-002
3.091332e+003,8.954365e-002
3.093260e+003,9.059124e-002
3.095189e+003,9.213638e-002
3.097117e+003,9.413510e-002
3.099046e+003,9.563982e-002
3.100974e+003,9.726639e-002
3.102903e+003,9.936580e-002
3.104831e+003,1.010577e-001
3.106760e+003,1.024268e-001
3.108688e+003,1.041934e-001
3.110617e+003,1.055142e-001
3.112545e+003,1.070126e-001
3.114474e+003,1.089509e-001
3.116402e+003,1.104002e-001
3.118331e+003,1.122505e-001
3.120259e+003,1.141203e-001
3.122188e+003,1.159610e-001
3.124116e+003,1.175886e-001
3.126044e+003,1.192813e-001
3.127973e+003,1.213818e-001
3.129901e+003,1.234099e-001
3.131830e+003,1.249656e-001
3.133758e+003,1.267348e-001
3.135687e+003,1.288469e-001
3.137615e+003,1.309274e-001
3.139544e+003,1.325195e-001
3.141472e+003,1.344254e-001
3.143401e+003,1.359797e-001
3.145329e+003,1.376387e-001
3.147258e+003,1.399653e-001
3.149186e+003,1.424820e-001
3.151115e+003,1.443891e-001
3.153043e+003,1.458052e-001
3.154971e+003,1.476400e-001
3.156900e+003,1.498302e-001
3.158828e+003,1.517222e-001
3.160757e+003,1.532103e-001
3.162685e+003,1.549708e-001
3.164614e+003,1.571037e-001
3.166542e+003,1.592283e-001
3.168471e+003,1.610374e-001
3.170399e+003,1.627504e-001
3.172328e+003,1.647351e-001
3.174256e+003,1.664914e-001
3.176185e+003,1.679236e-001
3.178113e+003,1.699746e-001
3.180042e+003,1.720771e-001
3.181970e+003,1.741424e-001
3.183898e+003,1.755254e-001
3.185827e+003,1.766419e-001
3.187755e+003,1.790237e-001
3.189684e+003,1.809812e-001
3.191612e+003,1.822737e-001
3.193541e+003,1.836486e-001
3.195469e+003,1.856214e-001
3.197398e+003,1.872737e-001
3.199326e+003,1.890928e-001
3.201255e+003,1.906055e-001
3.203183e+003,1.920826e-001
3.205112e+003,1.939859e-001
3.207040e+003,1.947894e-001
3.208969e+003,1.959051e-001
3.210897e+003,1.973908e-001
3.212825e+003,1.986747e-001
3.214754e+003,1.999024e-001
3.216682e+003,2.005291e-001
3.218611e+003,2.019183e-001
3.220539e+003,2.034557e-001
3.222468e+003,2.049781e-001
3.224396e+003,2.057391e-001
3.226325e+003,2.069685e-001
3.228253e+003,2.082077e-001
3.230182e+003,2.087167e-001
3.232110e+003,2.095195e-001
3.234039e+003,2.104790e-001
3.235967e+003,2.114260e-001
3.237896e+003,2.117607e-001
3.239824e+003,2.117365e-001
3.241752e+003,2.120977e-001
3.243681e+003,2.131250e-001
3.245609e+003,2.142667e-001
3.247538e+003,2.153097e-001
3.249466e+003,2.157805e-001
3.251395e+003,2.161496e-001
3.253323e+003,2.165547e-001
3.255252e+003,2.159467e-001
3.257180e+003,2.168459e-001
3.259109e+003,2.174511e-001
3.261037e+003,2.177722e-001
3.262966e+003,2.179372e-001
3.264894e+003,2.180365e-001
3.266823e+003,2.186599e-001
3.268751e+003,2.188646e-001
3.270679e+003,2.188727e-001
3.272608e+003,2.189630e-001
3.274536e+003,2.191524e-001
3.276465e+003,2.190384e-001
3.278393e+003,2.196681e-001
3.280322e+003,2.200701e-001
3.282250e+003,2.204168e-001
3.284179e+003,2.207458e-001
3.286107e+003,2.205424e-001
3.288036e+003,2.204897e-001
3.289964e+003,2.207019e-001
3.291893e+003,2.211263e-001
3.293821e+003,2.207739e-001
3.295750e+003,2.207262e-001
3.297678e+003,2.212178e-001
3.299606e+003,2.218531e-001
3.301535e+003,2.225475e-001
3.303463e+003,2.228251e-001
3.305392e+003,2.228577e-001
3.307320e+003,2.221910e-001
3.309249e+003,2.219647e-001
3.311177e+003,2.226398e-001
3.313106e+003,2.232220e-001
3.315034e+003,2.232650e-001
3.316963e+003,2.233536e-001
3.318891e+003,2.239777e-001
3.320820e+003,2.243697e-001
3.322748e+003,2.238428e-001
3.324677e+003,2.236035e-001
3.326605e+003,2.239170e-001
3.328533e+003,2.237174e-001
3.330462e+003,2.244624e-001
3.332390e+003,2.249894e-001
3.334319e+003,2.247543e-001
3.336247e+003,2.246851e-001
3.338176e+003,2.247024e-001
3.340104e+003,2.247767e-001
3.342033e+003,2.253546e-001
3.343961e+003,2.260419e-001
3.345890e+003,2.263070e-001
3.347818e+003,2.260608e-001
3.349747e+003,2.249970e-001
3.351675e+003,2.238739e-001
3.353604e+003,2.240442e-001
3.355532e+003,2.240885e-001
3.357460e+003,2.242571e-001
3.359389e+003,2.252754e-001
3.361317e+003,2.249112e-001
3.363246e+003,2.245303e-001
3.365174e+003,2.242167e-001
3.367103e+003,2.240393e-001
3.369031e+003,2.238006e-001
3.370960e+003,2.225549e-001
3.372888e+003,2.215550e-001
3.374817e+003,2.211426e-001
3.376745e+003,2.205442e-001
3.378674e+003,2.198709e-001
3.380602e+003,2.186197e-001
3.382531e+003,2.184697e-001
3.384459e+003,2.182752e-001
3.386387e+003,2.170623e-001
3.388316e+003,2.160617e-001
3.390244e+003,2.146552e-001
3.392173e+003,2.137359e-001
3.394101e+003,2.140029e-001
3.396030e+003,2.133560e-001
3.397958e+003,2.116917e-001
3.399887e+003,2.110062e-001
3.401815e+003,2.096308e-001
3.403744e+003,2.079266e-001
3.405672e+003,2.071229e-001
3.407601e+003,2.062007e-001
3.409529e+003,2.054790e-001
3.411458e+003,2.047222e-001
3.413386e+003,2.032295e-001
3.415314e+003,2.022257e-001
3.417243e+003,2.010106e-001
3.419171e+003,1.992336e-001
3.421100e+003,1.976980e-001
3.423028e+003,1.965352e-001
3.424957e+003,1.946958e-001
3.426885e+003,1.921985e-001
3.428814e+003,1.910383e-001
3.430742e+003,1.895096e-001
3.432671e+003,1.890142e-001
3.434599e+003,1.886563e-001
3.436528e+003,1.868138e-001
3.438456e+003,1.844453e-001
3.440385e+003,1.824784e-001
3.442313e+003,1.813502e-001
3.444241e+003,1.798211e-001
3.446170e+003,1.783354e-001
3.448098e+003,1.765717e-001
3.450027e+003,1.747397e-001
3.451955e+003,1.732236e-001
3.453884e+003,1.725057e-001
3.455812e+003,1.717292e-001
3.457741e+003,1.702667e-001
3.459669e+003,1.686108e-001
3.461598e+003,1.662980e-001
3.463526e+003,1.641440e-001
3.465455e+003,1.620064e-001
3.467383e+003,1.608947e-001
3.469312e+003,1.601540e-001
3.471240e+003,1.589004e-001
3.473168e+003,1.566304e-001
3.475097e+003,1.544258e-001
3.477025e+003,1.531648e-001
3.478954e+003,1.529931e-001
3.480882e+003,1.523488e-001
3.482811e+003,1.495159e-001
3.484739e+003,1.475225e-001
3.486668e+003,1.462784e-001
3.488596e+003,1.447582e-001
3.490525e+003,1.433663e-001
3.492453e+003,1.424240e-001
3.494382e+003,1.407147e-001
3.496310e+003,1.388973e-001
3.498239e+003,1.369187e-001
3.500167e+003,1.350312e-001
3.502095e+003,1.336706e-001
3.504024e+003,1.322066e-001
3.505952e+003,1.308490e-001
3.507881e+003,1.288280e-001
3.509809e+003,1.270519e-001
3.511738e+003,1.261567e-001
3.513666e+003,1.252461e-001
3.515595e+003,1.231564e-001
3.517523e+003,1.213249e-001
3.519452e+003,1.196319e-001
3.521380e+003,1.193043e-001
3.523309e+003,1.181702e-001
3.525237e+003,1.158757e-001
3.527166e+003,1.146056e-001
3.529094e+003,1.138904e-001
3.531022e+003,1.121542e-001
3.532951e+003,1.107603e-001
3.534879e+003,1.092848e-001
3.536808e+003,1.074592e-001
3.538736e+003,1.063342e-001
3.540665e+003,1.046946e-001
3.542593e+003,1.030004e-001
3.544522e+003,1.016640e-001
3.546450e+003,1.003205e-001
3.548379e+003,9.918019e-002
3.550307e+003,9.837709e-002
3.552236e+003,9.624159e-002
3.554164e+003,9.383593e-002
3.556093e+003,9.192461e-002
3.558021e+003,9.110566e-002
3.559949e+003,8.957342e-002
3.561878e+003,8.787242e-002
3.563806e+003,8.689960e-002
3.565735e+003,8.580543e-002
3.567663e+003,8.419814e-002
3.569592e+003,8.280107e-002
3.571520e+003,8.167058e-002
3.573449e+003,8.079306e-002
3.575377e+003,7.962830e-002
3.577306e+003,7.747606e-002
3.579234e+003,7.548174e-002
3.581163e+003,7.426105e-002
3.583091e+003,7.353767e-002
3.585020e+003,7.234931e-002
3.586948e+003,7.048336e-002
3.588876e+003,6.920414e-002
3.590805e+003,6.875072e-002
3.592733e+003,6.760111e-002
3.594662e+003,6.623520e-002
3.596590e+003,6.477013e-002
3.598519e+003,6.265880e-002
3.600447e+003,6.115503e-002
3.602376e+003,6.024190e-002
3.604304e+003,6.015166e-002
3.606233e+003,5.910156e-002
3.608161e+003,5.749635e-002
3.610090e+003,5.662783e-002
3.612018e+003,5.534811e-002
3.613947e+003,5.368306e-002
3.615875e+003,5.183839e-002
3.617803e+003,5.073994e-002
3.619732e+003,4.972982e-002
3.621660e+003,4.846516e-002
3.623589e+003,4.734781e-002
3.625517e+003,4.601078e-002
3.627446e+003,4.472879e-002
3.629374e+003,4.358035e-002
3.631303e+003,4.253230e-002
3.633231e+003,4.142579e-002
3.635160e+003,4.001971e-002
3.637088e+003,3.854834e-002
3.639017e+003,3.708072e-002
3.640945e+003,3.565919e-002
3.642874e+003,3.465536e-002
3.644802e+003,3.353310e-002
3.646730e+003,3.207413e-002
3.648659e+003,3.032352e-002
3.650587e+003,2.905853e-002
3.652516e+003,2.839783e-002
3.654444e+003,2.718104e-002
3.656373e+003,2.577785e-002
3.658301e+003,2.435370e-002
3.660230e+003,2.253795e-002
3.662158e+003,2.128880e-002
3.664087e+003,2.040918e-002
3.666015e+003,1.895231e-002
3.667944e+003,1.765867e-002
3.669872e+003,1.655066e-002
3.671801e+003,1.525117e-002
3.673729e+003,1.429252e-002
3.675657e+003,1.342301e-002
3.677586e+003,1.226285e-002
3.679514e+003,1.116972e-002
3.681443e+003,1.020310e-002
3.683371e+003,9.491666e-003
3.685300e+003,8.796510e-003
3.687228e+003,7.827559e-003
3.689157e+003,7.254213e-003
3.691085e+003,6.873052e-003
3.693014e+003,5.884868e-003
3.694942e+003,4.912163e-003
3.696871e+003,4.214256e-003
3.698799e+003,3.882555e-003
3.700728e+003,3.433733e-003
3.702656e+003,3.430260e-003
3.704584e+003,3.001857e-003
3.706513e+003,2.705087e-003
3.708441e+003,3.120582e-003
3.710370e+003,2.857116e-003
3.712298e+003,2.217315e-003
3.714227e+003,1.417299e-003
3.716155e+003,8.679846e-004
3.718084e+003,1.147322e-003
3.720012e+003,1.604161e-003
3.721941e+003,1.002334e-003
3.723869e+003,-1.061154e-004
3.725798e+003,-9.498491e-005
3.727726e+003,5.028350e-004
3.729655e+003,7.680631e-004
3.731583e+003,4.843915e-004
3.733511e+003,1.983525e-004
3.735440e+003,2.517260e-004
3.737368e+003,1.989161e-004
3.739297e+003,-4.490322e-004
3.741225e+003,-7.526167e-004
3.743154e+003,-1.005183e-003
3.745082e+003,-6.138048e-004
3.747011e+003,-8.392041e-005
3.748939e+003,-7.392536e-004
3.750868e+003,-1.406117e-003
3.752796e+003,-1.659392e-003
3.754725e+003,-1.795924e-003
3.756653e+003,-1.749263e-003
3.758582e+003,-1.522158e-003
3.760510e+003,-1.133625e-003
3.762438e+003,-1.282314e-003
3.764367e+003,-1.839445e-003
3.766295e+003,-1.534506e-003
3.768224e+003,-1.243693e-003
3.770152e+003,-1.461797e-003
3.772081e+003,-1.350430e-003
3.774009e+003,-1.424710e-003
3.775938e+003,-1.583864e-003
3.777866e+003,-1.726096e-003
3.779795e+003,-1.810871e-003
3.781723e+003,-1.996501e-003
3.783652e+003,-2.556670e-003
3.785580e+003,-2.577059e-003
3.787509e+003,-2.618164e-003
3.789437e+003,-2.184656e-003
3.791365e+003,-1.523512e-003
3.793294e+003,-1.790578e-003
3.795222e+003,-2.037034e-003
3.797151e+003,-2.454249e-003
3.799079e+003,-3.151644e-003
3.801008e+003,-2.958314e-003
3.802936e+003,-2.705432e-003
3.804865e+003,-2.683732e-003
3.806793e+003,-2.973879e-003
3.808722e+003,-2.751036e-003
3.810650e+003,-2.433590e-003
3.812579e+003,-2.313772e-003
3.814507e+003,-2.139883e-003
3.816436e+003,-1.956492e-003
3.818364e+003,-2.018434e-003
3.820292e+003,-2.889397e-003
3.822221e+003,-3.379083e-003
3.824149e+003,-3.519085e-003
3.826078e+003,-3.265675e-003
3.828006e+003,-3.002739e-003
3.829935e+003,-3.076902e-003
3.831863e+003,-2.946664e-003
3.833792e+003,-3.164605e-003
3.835720e+003,-3.057721e-003
3.837649e+003,-3.070421e-003
3.839577e+003,-3.480169e-003
3.841506e+003,-3.750174e-003
3.843434e+003,-3.786931e-003
3.845363e+003,-3.415181e-003
3.847291e+003,-3.370765e-003
3.849219e+003,-3.328515e-003
3.851148e+003,-3.030642e-003
3.853076e+003,-2.540167e-003
3.855005e+003,-2.137674e-003
3.856933e+003,-2.268155e-003
3.858862e+003,-2.860233e-003
3.860790e+003,-3.005536e-003
3.862719e+003,-3.006128e-003
3.864647e+003,-3.639491e-003
3.866576e+003,-4.034883e-003
3.868504e+003,-3.960391e-003
3.870433e+003,-3.843226e-003
3.872361e+003,-3.271693e-003
3.874290e+003,-3.344857e-003
3.876218e+003,-3.678721e-003
3.878146e+003,-3.320459e-003
3.880075e+003,-2.942089e-003
3.882003e+003,-3.202168e-003
3.883932e+003,-3.560988e-003
3.885860e+003,-3.467120e-003
3.887789e+003,-2.825768e-003
3.889717e+003,-3.195984e-003
3.891646e+003,-3.399762e-003
3.893574e+003,-3.132829e-003
3.895503e+003,-3.032550e-003
3.897431e+003,-3.154671e-003
3.899360e+003,-3.648626e-003
3.901288e+003,-3.805587e-003
3.903217e+003,-3.825064e-003
3.905145e+003,-4.013873e-003
3.907073e+003,-3.875016e-003
3.909002e+003,-3.996506e-003
3.910930e+003,-4.281546e-003
3.912859e+003,-3.485494e-003
3.914787e+003,-3.049101e-003
3.916716e+003,-3.603971e-003
3.918644e+003,-4.453660e-003
3.920573e+003,-4.047095e-003
3.922501e+003,-3.551063e-003
3.924430e+003,-3.659304e-003
3.926358e+003,-3.466758e-003
3.928287e+003,-3.225848e-003
3.930215e+003,-3.164046e-003
3.932144e+003,-3.404562e-003
3.934072e+003,-3.937374e-003
3.936000e+003,-4.223338e-003
3.937929e+003,-4.016827e-003
3.939857e+003,-3.948439e-003
3.941786e+003,-3.826640e-003
3.943714e+003,-3.756678e-003
3.945643e+003,-3.366524e-003
3.947571e+003,-3.453544e-003
3.949500e+003,-4.049983e-003
3.951428e+003,-4.211099e-003
3.953357e+003,-4.320127e-003
3.955285e+003,-3.865230e-003
3.957214e+003,-3.472609e-003
3.959142e+003,-3.397921e-003
3.961071e+003,-2.930932e-003
3.962999e+003,-3.390853e-003
3.964927e+003,-4.096234e-003
3.966856e+003,-4.069548e-003
3.968784e+003,-3.964955e-003
3.970713e+003,-4.027957e-003
3.972641e+003,-4.563546e-003
3.974570e+003,-4.334857e-003
3.976498e+003,-3.057260e-003
3.978427e+003,-2.832813e-003
3.980355e+003,-3.853374e-003
3.982284e+003,-4.123377e-003
3.984212e+003,-4.269176e-003
3.986141e+003,-4.769862e-003
3.988069e+003,-4.492194e-003
3.989998e+003,-4.206800e-003
3.991926e+003,-4.323670e-003
3.993854e+003,-3.993453e-003
3.995783e+003,-3.969420e-003
3.997711e+003,-4.747806e-003
3.999640e+003,-4.009080e-003
4.001568e+003,0.000000e+000
