3.991927e+002,0.000000e+000
4.011211e+002,0.000000e+000
4.030496e+002,0.000000e+000
4.049781e+002,0.000000e+000
4.069065e+002,0.000000e+000
4.088350e+002,0.000000e+000
4.107635e+002,0.000000e+000
4.126919e+002,0.000000e+000
4.146204e+002,0.000000e+000
4.165489e+002,0.000000e+000
4.184773e+002,0.000000e+000
4.204058e+002,0.000000e+000
4.223343e+002,0.000000e+000
4.242627e+002,0.000000e+000
4.261912e+002,0.000000e+000
4.281197e+002,0.000000e+000
4.300481e+002,0.000000e+000
4.319766e+002,0.000000e+000
4.339051e+002,0.000000e+000
4.358335e+002,0.000000e+000
4.377620e+002,0.000000e+000
4.396905e+002,0.000000e+000
4.416189e+002,0.000000e+000
4.435474e+002,0.000000e+000
4.454759e+002,0.000000e+000
4.474043e+002,0.000000e+000
4.493328e+002,0.000000e+000
4.512613e+002,0.000000e+000
4.531897e+002,0.000000e+000
4.551182e+002,0.000000e+000
4.570467e+002,0.000000e+000
4.589751e+002,0.000000e+000
4.609036e+002,0.000000e+000
4.628321e+002,0.000000e+000
4.647605e+002,0.000000e+000
4.666890e+002,0.000000e+000
4.686175e+002,0.000000e+000
4.705459e+002,0.000000e+000
4.724744e+002,0.000000e+000
4.744029e+002,0.000000e+000
4.763313e+002,0.000000e+000
4.782598e+002,0.000000e+000
4.801883e+002,0.000000e+000
4.821167e+002,0.000000e+000
4.840452e+002,0.000000e+000
4.859737e+002,0.000000e+000
4.879021e+002,0.000000e+000
4.898306e+002,0.000000e+000
4.917591e+002,0.000000e+000
4.936875e+002,0.000000e+000
4.956160e+002,0.000000e+000
4.975445e+002,0.000000e+000
4.994729e+002,0.000000e+000
5.014014e+002,0.000000e+000
5.033299e+002,0.000000e+000
5.052583e+002,0.000000e+000
5.071868e+002,0.000000e+000
5.091153e+002,0.000000e+000
5.110437e+002,0.000000e+000
5.129722e+002,0.000000e+000
5.149006e+002,0.000000e+000
5.168291e+002,0.000000e+000
5.187576e+002,0.000000e+000
5.206860e+002,0.000000e+000
5.226145e+002,0.000000e+000
5.245430e+002,0.000000e+000
5.264714e+002,0.000000e+000
5.283999e+002,0.000000e+000
5.303284e+002,0.000000e+000
5.322568e+002,0.000000e+000
5.341853e+002,0.000000e+000
5.361138e+002,0.000000e+000
5.380422e+002,0.000000e+000
5.399707e+002,0.000000e+000
5.418992e+002,0.000000e+000
5.438276e+002,0.000000e+000
5.457561e+002,0.000000e+000
5.476846e+002,0.000000e+000
5.496130e+002,0.000000e+000
5.515415e+002,0.000000e+000
5.534700e+002,0.000000e+000
5.553984e+002,0.000000e+000
5.573269e+002,0.000000e+000
5.592554e+002,0.000000e+000
5.611838e+002,0.000000e+000
5.631123e+002,0.000000e+000
5.650408e+002,0.000000e+000
5.669692e+002,0.000000e+000
5.688977e+002,0.000000e+000
5.708262e+002,0.000000e+000
5.727546e+002,0.000000e+000
5.746831e+002,0.000000e+000
5.766116e+002,0.000000e+000
5.785400e+002,0.000000e+000
5.804685e+002,0.000000e+000
5.823970e+002,0.000000e+000
5.843254e+002,0.000000e+000
5.862539e+002,0.000000e+000
5.881824e+002,0.000000e+000
5.901108e+002,0.000000e+000
5.920393e+002,0.000000e+000
5.939678e+002,0.000000e+000
5.958962e+002,0.000000e+000
5.978247e+002,0.000000e+000
5.997532e+002,0.000000e+000
6.016816e+002,0.000000e+000
6.036101e+002,0.000000e+000
6.055386e+002,0.000000e+000
6.074670e+002,0.000000e+000
6.093955e+002,0.000000e+000
6.113240e+002,0.000000e+000
6.132524e+002,0.000000e+000
6.151809e+002,0.000000e+000
6.171094e+002,0.000000e+000
6.190378e+002,0.000000e+000
6.209663e+002,0.000000e+000
6.228948e+002,0.000000e+000
6.248232e+002,0.000000e+000
6.267517e+002,0.000000e+000
6.286802e+002,0.000000e+000
6.306086e+002,0.000000e+000
6.325371e+002,0.000000e+000
6.344656e+002,0.000000e+000
6.363940e+002,0.000000e+000
6.383225e+002,0.000000e+000
6.402510e+002,0.000000e+000
6.421794e+002,0.000000e+000
6.441079e+002,0.000000e+000
6.460364e+002,0.000000e+000
6.479648e+002,0.000000e+000
6.498933e+002,3.820148e-001
6.518218e+002,3.793864e-001
6.537502e+002,3.757498e-001
6.556787e+002,3.722277e-001
6.576072e+002,3.694308e-001
6.595356e+002,3.695921e-001
6.614641e+002,3.689231e-001
6.633926e+002,3.671450e-001
6.653210e+002,3.630526e-001
6.672495e+002,3.598882e-001
6.691780e+002,3.564673e-001
6.711064e+002,3.530029e-001
6.730349e+002,3.507693e-001
6.749634e+002,3.474509e-001
6.768918e+002,3.438623e-001
6.788203e+002,3.401566e-001
6.807488e+002,3.374433e-001
6.826772e+002,3.357868e-001
6.846057e+002,3.350549e-001
6.865342e+002,3.328655e-001
6.884626e+002,3.303653e-001
6.903911e+002,3.270696e-001
6.923196e+002,3.258536e-001
6.942480e+002,3.246129e-001
6.961765e+002,3.232466e-001
6.981050e+002,3.213262e-001
7.000334e+002,3.191609e-001
7.019619e+002,3.168950e-001
7.038904e+002,3.150180e-001
7.058188e+002,3.122874e-001
7.077473e+002,3.090994e-001
7.096758e+002,3.069628e-001
7.116042e+002,3.050901e-001
7.135327e+002,3.021634e-001
7.154612e+002,2.987992e-001
7.173896e+002,2.949332e-001
7.193181e+002,2.900759e-001
7.212466e+002,2.876304e-001
7.231750e+002,2.864188e-001
7.251035e+002,2.837135e-001
7.270320e+002,2.813438e-001
7.289604e+002,2.789576e-001
7.308889e+002,2.764589e-001
7.328174e+002,2.732611e-001
7.347458e+002,2.710452e-001
7.366743e+002,2.684997e-001
7.386028e+002,2.660273e-001
7.405313e+002,2.634921e-001
7.424597e+002,2.612523e-001
7.443882e+002,2.587230e-001
7.463167e+002,2.566027e-001
7.482451e+002,2.538928e-001
7.501736e+002,2.517180e-001
7.521021e+002,2.481221e-001
7.540305e+002,2.452197e-001
7.559590e+002,2.422922e-001
7.578875e+002,2.395361e-001
7.598159e+002,2.369146e-001
7.617444e+002,2.349989e-001
7.636729e+002,2.325362e-001
7.656013e+002,2.294076e-001
7.675298e+002,2.271210e-001
7.694583e+002,2.249013e-001
7.713867e+002,2.221360e-001
7.733152e+002,2.195287e-001
7.752437e+002,2.169195e-001
7.771721e+002,2.148695e-001
7.791006e+002,2.126776e-001
7.810291e+002,2.101630e-001
7.829575e+002,2.075661e-001
7.848860e+002,2.055361e-001
7.868145e+002,2.018411e-001
7.887429e+002,1.982010e-001
7.906714e+002,1.951679e-001
7.925999e+002,1.921854e-001
7.945283e+002,1.902764e-001
7.964568e+002,1.871401e-001
7.983853e+002,1.838590e-001
8.003137e+002,1.810331e-001
8.022422e+002,1.780924e-001
8.041707e+002,1.767306e-001
8.060991e+002,1.745571e-001
8.080276e+002,1.713653e-001
8.099561e+002,1.697006e-001
8.118845e+002,1.677139e-001
8.138130e+002,1.659077e-001
8.157415e+002,1.644733e-001
8.176699e+002,1.627994e-001
8.195984e+002,1.598666e-001
8.215269e+002,1.568031e-001
8.234553e+002,1.547017e-001
8.253838e+002,1.523201e-001
8.273123e+002,1.513107e-001
8.292407e+002,1.504743e-001
8.311692e+002,1.492923e-001
8.330977e+002,1.484959e-001
8.350261e+002,1.462771e-001
8.369546e+002,1.438723e-001
8.388831e+002,1.412433e-001
8.408115e+002,1.392177e-001
8.427400e+002,1.372658e-001
8.446685e+002,1.341928e-001
8.465969e+002,1.316696e-001
8.485254e+002,1.301427e-001
8.504539e+002,1.288161e-001
8.523823e+002,1.270514e-001
8.543108e+002,1.249150e-001
8.562393e+002,1.232944e-001
8.581677e+002,1.212348e-001
8.600962e+002,1.186582e-001
8.620247e+002,1.172161e-001
8.639531e+002,1.157473e-001
8.658816e+002,1.134255e-001
8.678101e+002,1.119392e-001
8.697385e+002,1.103007e-001
8.716670e+002,1.081015e-001
8.735955e+002,1.067004e-001
8.755239e+002,1.055553e-001
8.774524e+002,1.040095e-001
8.793809e+002,1.023496e-001
8.813093e+002,1.012873e-001
8.832378e+002,9.975751e-002
8.851663e+002,9.801486e-002
8.870947e+002,9.675804e-002
8.890232e+002,9.587573e-002
8.909517e+002,9.524924e-002
8.928801e+002,9.362374e-002
8.948086e+002,9.189959e-002
8.967371e+002,9.088512e-002
8.986655e+002,8.954365e-002
9.005940e+002,8.746324e-002
9.025225e+002,8.536326e-002
9.044509e+002,8.380915e-002
9.063794e+002,8.271123e-002
9.083079e+002,8.159413e-002
9.102363e+002,8.061630e-002
9.121648e+002,7.957994e-002
9.140933e+002,7.812785e-002
9.160217e+002,7.711130e-002
9.179502e+002,7.658772e-002
9.198787e+002,7.598370e-002
9.218071e+002,7.496008e-002
9.237356e+002,7.383876e-002
9.256641e+002,7.273208e-002
9.275925e+002,7.218695e-002
9.295210e+002,7.108309e-002
9.314495e+002,6.981728e-002
9.333779e+002,6.880382e-002
9.353064e+002,6.778981e-002
9.372349e+002,6.664413e-002
9.391633e+002,6.549218e-002
9.410918e+002,6.482429e-002
9.430203e+002,6.420978e-002
9.449487e+002,6.393617e-002
9.468772e+002,6.383514e-002
9.488057e+002,6.330352e-002
9.507341e+002,6.241302e-002
9.526626e+002,6.187560e-002
9.545911e+002,6.111475e-002
9.565195e+002,6.040138e-002
9.584480e+002,5.975116e-002
9.603765e+002,5.920874e-002
9.623049e+002,5.902104e-002
9.642334e+002,5.846263e-002
9.661619e+002,5.828457e-002
9.680903e+002,5.852689e-002
9.700188e+002,5.858665e-002
9.719473e+002,5.854080e-002
9.738757e+002,5.849876e-002
9.758042e+002,5.819511e-002
9.777327e+002,5.782366e-002
9.796611e+002,5.726882e-002
9.815896e+002,5.722535e-002
9.835181e+002,5.744639e-002
9.854465e+002,5.748637e-002
9.873750e+002,5.716673e-002
9.893035e+002,5.717232e-002
9.912319e+002,5.736615e-002
9.931604e+002,5.700869e-002
9.950889e+002,5.684940e-002
9.970173e+002,5.655959e-002
9.989458e+002,5.599758e-002
1.000874e+003,5.542046e-002
1.002803e+003,5.563666e-002
1.004731e+003,5.596125e-002
1.006660e+003,5.630411e-002
1.008588e+003,5.653940e-002
1.010517e+003,5.651381e-002
1.012445e+003,5.667593e-002
1.014374e+003,5.709711e-002
1.016302e+003,5.721526e-002
1.018230e+003,5.708204e-002
1.020159e+003,5.667959e-002
1.022087e+003,5.634685e-002
1.024016e+003,5.670806e-002
1.025944e+003,5.735858e-002
1.027873e+003,5.754413e-002
1.029801e+003,5.778093e-002
1.031730e+003,5.789797e-002
1.033658e+003,5.855104e-002
1.035587e+003,5.955315e-002
1.037515e+003,6.007240e-002
1.039444e+003,6.038425e-002
1.041372e+003,6.068966e-002
1.043301e+003,6.113024e-002
1.045229e+003,6.200060e-002
1.047157e+003,6.298692e-002
1.049086e+003,6.362690e-002
1.051014e+003,6.367765e-002
1.052943e+003,6.323111e-002
1.054871e+003,6.283368e-002
1.056800e+003,6.196949e-002
1.058728e+003,6.081336e-002
1.060657e+003,5.963045e-002
1.062585e+003,5.900468e-002
1.064514e+003,5.870857e-002
1.066442e+003,5.757447e-002
1.068371e+003,5.629087e-002
1.070299e+003,5.586609e-002
1.072228e+003,5.590362e-002
1.074156e+003,5.600931e-002
1.076084e+003,5.575754e-002
1.078013e+003,5.575200e-002
1.079941e+003,5.602454e-002
1.081870e+003,5.612395e-002
1.083798e+003,5.567328e-002
1.085727e+003,5.403846e-002
1.087655e+003,5.344699e-002
1.089584e+003,5.311566e-002
1.091512e+003,5.241220e-002
1.093441e+003,5.172040e-002
1.095369e+003,5.092425e-002
1.097298e+003,4.983104e-002
1.099226e+003,4.898782e-002
1.101155e+003,4.900570e-002
1.103083e+003,4.880289e-002
1.105011e+003,4.750725e-002
1.106940e+003,4.661326e-002
1.108868e+003,4.609857e-002
1.110797e+003,4.573908e-002
1.112725e+003,4.562347e-002
1.114654e+003,4.522969e-002
1.116582e+003,4.474018e-002
1.118511e+003,4.492589e-002
1.120439e+003,4.513906e-002
1.122368e+003,4.512807e-002
1.124296e+003,4.498325e-002
1.126225e+003,4.509778e-002
1.128153e+003,4.501805e-002
1.130082e+003,4.440728e-002
1.132010e+003,4.438408e-002
1.133938e+003,4.455242e-002
1.135867e+003,4.496995e-002
1.137795e+003,4.502691e-002
1.139724e+003,4.494948e-002
1.141652e+003,4.477224e-002
1.143581e+003,4.430464e-002
1.145509e+003,4.355595e-002
1.147438e+003,4.304516e-002
1.149366e+003,4.299782e-002
1.151295e+003,4.280723e-002
1.153223e+003,4.218794e-002
1.155152e+003,4.161013e-002
1.157080e+003,4.119371e-002
1.159009e+003,4.084382e-002
1.160937e+003,4.042500e-002
1.162865e+003,4.029905e-002
1.164794e+003,4.024139e-002
1.166722e+003,4.016837e-002
1.168651e+003,4.004616e-002
1.170579e+003,3.974066e-002
1.172508e+003,3.980355e-002
1.174436e+003,3.987190e-002
1.176365e+003,4.011651e-002
1.178293e+003,4.022529e-002
1.180222e+003,4.025753e-002
1.182150e+003,4.091215e-002
1.184079e+003,4.139511e-002
1.186007e+003,4.168813e-002
1.187936e+003,4.187407e-002
1.189864e+003,4.266135e-002
1.191792e+003,4.313294e-002
1.193721e+003,4.328962e-002
1.195649e+003,4.326817e-002
1.197578e+003,4.311501e-002
1.199506e+003,4.295897e-002
1.201435e+003,4.309843e-002
1.203363e+003,4.349335e-002
1.205292e+003,4.375244e-002
1.207220e+003,4.390356e-002
1.209149e+003,4.429359e-002
1.211077e+003,4.438056e-002
1.213006e+003,4.445745e-002
1.214934e+003,4.479377e-002
1.216863e+003,4.531118e-002
1.218791e+003,4.552241e-002
1.220719e+003,4.564246e-002
1.222648e+003,4.581831e-002
1.224576e+003,4.599100e-002
1.226505e+003,4.608457e-002
1.228433e+003,4.637204e-002
1.230362e+003,4.655757e-002
1.232290e+003,4.666790e-002
1.234219e+003,4.670922e-002
1.236147e+003,4.659224e-002
1.238076e+003,4.656963e-002
1.240004e+003,4.680129e-002
1.241933e+003,4.680000e-002
1.243861e+003,4.668166e-002
1.245790e+003,4.717536e-002
1.247718e+003,4.733580e-002
1.249646e+003,4.714131e-002
1.251575e+003,4.708791e-002
1.253503e+003,4.675509e-002
1.255432e+003,4.628848e-002
1.257360e+003,4.602699e-002
1.259289e+003,4.607614e-002
1.261217e+003,4.623028e-002
1.263146e+003,4.590861e-002
1.265074e+003,4.535245e-002
1.267003e+003,4.558942e-002
1.268931e+003,4.654960e-002
1.270860e+003,4.727743e-002
1.272788e+003,4.770394e-002
1.274717e+003,4.829989e-002
1.276645e+003,4.873175e-002
1.278573e+003,4.861014e-002
1.280502e+003,4.843652e-002
1.282430e+003,4.820888e-002
1.284359e+003,4.784435e-002
1.286287e+003,4.755738e-002
1.288216e+003,4.704053e-002
1.290144e+003,4.650317e-002
1.292073e+003,4.601391e-002
1.294001e+003,4.550475e-002
1.295930e+003,4.504551e-002
1.297858e+003,4.466467e-002
1.299787e+003,4.429741e-002
1.301715e+003,4.368527e-002
1.303644e+003,4.321217e-002
1.305572e+003,4.263098e-002
1.307500e+003,4.237041e-002
1.309429e+003,4.217220e-002
1.311357e+003,4.166629e-002
1.313286e+003,4.119217e-002
1.315214e+003,4.111630e-002
1.317143e+003,4.117560e-002
1.319071e+003,4.099069e-002
1.321000e+003,4.094379e-002
1.322928e+003,4.127189e-002
1.324857e+003,4.113517e-002
1.326785e+003,4.086522e-002
1.328714e+003,4.089158e-002
1.330642e+003,4.093614e-002
1.332571e+003,4.068528e-002
1.334499e+003,4.040908e-002
1.336427e+003,4.053790e-002
1.338356e+003,4.056162e-002
1.340284e+003,4.033417e-002
1.342213e+003,4.051775e-002
1.344141e+003,4.090352e-002
1.346070e+003,4.092187e-002
1.347998e+003,4.083002e-002
1.349927e+003,4.110020e-002
1.351855e+003,4.155317e-002
1.353784e+003,4.182179e-002
1.355712e+003,4.204078e-002
1.357641e+003,4.221288e-002
1.359569e+003,4.274171e-002
1.361498e+003,4.311622e-002
1.363426e+003,4.354749e-002
1.365354e+003,4.376369e-002
1.367283e+003,4.350595e-002
1.369211e+003,4.333257e-002
1.371140e+003,4.328666e-002
1.373068e+003,4.312657e-002
1.374997e+003,4.313583e-002
1.376925e+003,4.313810e-002
1.378854e+003,4.300766e-002
1.380782e+003,4.311398e-002
1.382711e+003,4.339001e-002
1.384639e+003,4.329427e-002
1.386568e+003,4.294368e-002
1.388496e+003,4.300397e-002
1.390425e+003,4.319878e-002
1.392353e+003,4.293538e-002
1.394281e+003,4.279739e-002
1.396210e+003,4.276332e-002
1.398138e+003,4.253588e-002
1.400067e+003,4.263898e-002
1.401995e+003,4.279304e-002
1.403924e+003,4.242692e-002
1.405852e+003,4.202311e-002
1.407781e+003,4.205710e-002
1.409709e+003,4.215286e-002
1.411638e+003,4.204374e-002
1.413566e+003,4.195045e-002
1.415495e+003,4.196673e-002
1.417423e+003,4.178399e-002
1.419352e+003,4.180369e-002
1.421280e+003,4.179100e-002
1.423208e+003,4.179373e-002
1.425137e+003,4.176860e-002
1.427065e+003,4.156331e-002
1.428994e+003,4.119436e-002
1.430922e+003,4.118292e-002
1.432851e+003,4.110093e-002
1.434779e+003,4.085933e-002
1.436708e+003,4.085656e-002
1.438636e+003,4.106614e-002
1.440565e+003,4.084265e-002
1.442493e+003,4.064751e-002
1.444422e+003,4.042246e-002
1.446350e+003,4.036348e-002
1.448279e+003,4.031919e-002
1.450207e+003,4.021925e-002
1.452135e+003,4.000685e-002
1.454064e+003,3.972021e-002
1.455992e+003,3.960532e-002
1.457921e+003,3.954688e-002
1.459849e+003,3.941153e-002
1.461778e+003,3.933451e-002
1.463706e+003,3.927658e-002
1.465635e+003,3.908835e-002
1.467563e+003,3.868078e-002
1.469492e+003,3.835434e-002
1.471420e+003,3.818517e-002
1.473349e+003,3.793344e-002
1.475277e+003,3.760279e-002
1.477206e+003,3.733669e-002
1.479134e+003,3.708714e-002
1.481063e+003,3.688250e-002
1.482991e+003,3.681844e-002
1.484919e+003,3.658419e-002
1.486848e+003,3.643178e-002
1.488776e+003,3.638905e-002
1.490705e+003,3.622211e-002
1.492633e+003,3.611077e-002
1.494562e+003,3.623908e-002
1.496490e+003,3.645192e-002
1.498419e+003,3.659125e-002
1.500347e+003,3.702021e-002
1.502276e+003,3.741657e-002
1.504204e+003,3.782432e-002
1.506133e+003,3.812732e-002
1.508061e+003,3.872983e-002
1.509990e+003,3.945213e-002
1.511918e+003,3.985065e-002
1.513846e+003,4.026531e-002
1.515775e+003,4.042999e-002
1.517703e+003,4.043897e-002
1.519632e+003,3.995802e-002
1.521560e+003,3.912845e-002
1.523489e+003,3.861287e-002
1.525417e+003,3.806037e-002
1.527346e+003,3.751402e-002
1.529274e+003,3.723394e-002
1.531203e+003,3.707134e-002
1.533131e+003,3.698961e-002
1.535060e+003,3.687193e-002
1.536988e+003,3.709180e-002
1.538917e+003,3.780321e-002
1.540845e+003,3.819592e-002
1.542773e+003,3.856692e-002
1.544702e+003,3.884076e-002
1.546630e+003,3.903643e-002
1.548559e+003,3.906725e-002
1.550487e+003,3.921181e-002
1.552416e+003,3.977737e-002
1.554344e+003,4.053619e-002
1.556273e+003,4.163018e-002
1.558201e+003,4.254366e-002
1.560130e+003,4.341466e-002
1.562058e+003,4.474697e-002
1.563987e+003,4.568530e-002
1.565915e+003,4.653500e-002
1.567844e+003,4.747845e-002
1.569772e+003,4.808868e-002
1.571700e+003,4.876659e-002
1.573629e+003,5.009557e-002
1.575557e+003,5.142597e-002
1.577486e+003,5.258397e-002
1.579414e+003,5.424188e-002
1.581343e+003,5.583873e-002
1.583271e+003,5.747604e-002
1.585200e+003,5.902571e-002
1.587128e+003,6.053647e-002
1.589057e+003,6.244699e-002
1.590985e+003,6.427052e-002
1.592914e+003,6.598882e-002
1.594842e+003,6.794646e-002
1.596771e+003,7.043920e-002
1.598699e+003,7.331480e-002
1.600627e+003,7.622172e-002
1.602556e+003,7.895076e-002
1.604484e+003,8.158849e-002
1.606413e+003,8.464472e-002
1.608341e+003,8.763839e-002
1.610270e+003,9.062830e-002
1.612198e+003,9.355542e-002
1.614127e+003,9.623522e-002
1.616055e+003,9.907841e-002
1.617984e+003,1.018161e-001
1.619912e+003,1.041922e-001
1.621841e+003,1.070319e-001
1.623769e+003,1.095184e-001
1.625698e+003,1.115228e-001
1.627626e+003,1.136049e-001
1.629554e+003,1.154739e-001
1.631483e+003,1.169347e-001
1.633411e+003,1.179711e-001
1.635340e+003,1.186135e-001
1.637268e+003,1.189363e-001
1.639197e+003,1.188523e-001
1.641125e+003,1.181637e-001
1.643054e+003,1.170564e-001
1.644982e+003,1.157382e-001
1.646911e+003,1.145117e-001
1.648839e+003,1.130122e-001
1.650768e+003,1.112829e-001
1.652696e+003,1.092867e-001
1.654625e+003,1.071377e-001
1.656553e+003,1.049382e-001
1.658481e+003,1.024542e-001
1.660410e+003,1.000691e-001
1.662338e+003,9.769405e-002
1.664267e+003,9.498914e-002
1.666195e+003,9.240180e-002
1.668124e+003,9.002104e-002
1.670052e+003,8.750141e-002
1.671981e+003,8.451887e-002
1.673909e+003,8.193515e-002
1.675838e+003,7.966106e-002
1.677766e+003,7.733414e-002
1.679695e+003,7.517793e-002
1.681623e+003,7.278853e-002
1.683552e+003,7.039557e-002
1.685480e+003,6.848121e-002
1.687408e+003,6.684969e-002
1.689337e+003,6.517330e-002
1.691265e+003,6.327871e-002
1.693194e+003,6.149897e-002
1.695122e+003,6.027574e-002
1.697051e+003,5.893363e-002
1.698979e+003,5.755279e-002
1.700908e+003,5.604520e-002
1.702836e+003,5.446494e-002
1.704765e+003,5.306496e-002
1.706693e+003,5.191957e-002
1.708622e+003,5.081268e-002
1.710550e+003,4.969136e-002
1.712479e+003,4.847601e-002
1.714407e+003,4.732764e-002
1.716335e+003,4.654248e-002
1.718264e+003,4.539574e-002
1.720192e+003,4.417976e-002
1.722121e+003,4.287247e-002
1.724049e+003,4.117709e-002
1.725978e+003,3.899859e-002
1.727906e+003,3.676305e-002
1.729835e+003,3.473970e-002
1.731763e+003,3.289137e-002
1.733692e+003,3.122382e-002
1.735620e+003,2.959987e-002
1.737549e+003,2.823242e-002
1.739477e+003,2.669580e-002
1.741406e+003,2.530920e-002
1.743334e+003,2.408488e-002
1.745262e+003,2.286871e-002
1.747191e+003,2.193992e-002
1.749119e+003,2.106955e-002
1.751048e+003,2.014699e-002
1.752976e+003,1.936248e-002
1.754905e+003,1.887800e-002
1.756833e+003,1.821020e-002
1.758762e+003,1.778645e-002
1.760690e+003,1.738938e-002
1.762619e+003,1.679963e-002
1.764547e+003,1.634270e-002
1.766476e+003,1.582350e-002
1.768404e+003,1.523172e-002
1.770333e+003,1.499963e-002
1.772261e+003,1.489403e-002
1.774189e+003,1.452756e-002
1.776118e+003,1.392560e-002
1.778046e+003,1.329922e-002
1.779975e+003,1.292077e-002
1.781903e+003,1.262274e-002
1.783832e+003,1.235529e-002
1.785760e+003,1.213697e-002
1.787689e+003,1.175180e-002
1.789617e+003,1.135389e-002
1.791546e+003,1.085652e-002
1.793474e+003,1.040325e-002
1.795403e+003,1.043922e-002
1.797331e+003,1.039466e-002
1.799260e+003,1.007144e-002
1.801188e+003,9.895979e-003
1.803116e+003,9.859269e-003
1.805045e+003,9.677767e-003
1.806973e+003,9.514391e-003
1.808902e+003,9.404571e-003
1.810830e+003,9.141495e-003
1.812759e+003,9.058903e-003
1.814687e+003,8.999430e-003
1.816616e+003,8.683120e-003
1.818544e+003,8.626875e-003
1.820473e+003,8.713172e-003
1.822401e+003,8.692483e-003
1.824330e+003,8.703368e-003
1.826258e+003,8.608522e-003
1.828187e+003,8.471969e-003
1.830115e+003,8.518563e-003
1.832043e+003,8.349272e-003
1.833972e+003,8.278617e-003
1.835900e+003,8.369843e-003
1.837829e+003,8.281318e-003
1.839757e+003,7.954664e-003
1.841686e+003,7.766635e-003
1.843614e+003,8.004341e-003
1.845543e+003,8.147737e-003
1.847471e+003,8.177415e-003
1.849400e+003,8.071747e-003
1.851328e+003,7.874523e-003
1.853257e+003,7.737053e-003
1.855185e+003,7.693072e-003
1.857114e+003,7.770413e-003
1.859042e+003,7.798614e-003
1.860970e+003,7.685012e-003
1.862899e+003,7.600335e-003
1.864827e+003,7.536746e-003
1.866756e+003,7.393451e-003
1.868684e+003,7.457188e-003
1.870613e+003,7.649264e-003
1.872541e+003,7.765657e-003
1.874470e+003,7.679346e-003
1.876398e+003,7.555255e-003
1.878327e+003,7.400427e-003
1.880255e+003,7.284469e-003
1.882183e+003,7.294038e-003
1.884112e+003,7.517698e-003
1.886040e+003,7.661067e-003
1.887969e+003,7.619859e-003
1.889897e+003,7.694623e-003
1.891826e+003,7.673848e-003
1.893754e+003,7.603403e-003
1.895683e+003,7.683191e-003
1.897611e+003,7.757797e-003
1.899540e+003,7.623770e-003
1.901468e+003,7.618274e-003
1.903397e+003,7.632572e-003
1.905325e+003,7.670071e-003
1.907254e+003,7.686125e-003
1.909182e+003,7.682988e-003
1.911110e+003,7.582161e-003
1.913039e+003,7.664878e-003
1.914967e+003,7.685248e-003
1.916896e+003,7.680661e-003
1.918824e+003,7.837478e-003
1.920753e+003,7.596491e-003
1.922681e+003,7.587454e-003
1.924610e+003,8.001203e-003
1.926538e+003,8.110195e-003
1.928467e+003,8.079679e-003
1.930395e+003,8.120864e-003
1.932324e+003,8.205642e-003
1.934252e+003,8.265513e-003
1.936181e+003,8.331100e-003
1.938109e+003,8.222660e-003
1.940037e+003,8.150944e-003
1.941966e+003,8.201523e-003
1.943894e+003,8.199395e-003
1.945823e+003,8.349340e-003
1.947751e+003,8.376701e-003
1.949680e+003,8.594598e-003
1.951608e+003,8.717567e-003
1.953537e+003,8.765945e-003
1.955465e+003,8.716146e-003
1.957394e+003,8.567494e-003
1.959322e+003,8.445548e-003
1.961251e+003,8.595207e-003
1.963179e+003,8.795530e-003
1.965108e+003,9.237270e-003
1.967036e+003,9.371289e-003
1.968964e+003,9.199499e-003
1.970893e+003,9.244547e-003
1.972821e+003,9.425124e-003
1.974750e+003,9.534678e-003
1.976678e+003,9.564044e-003
1.978607e+003,9.574342e-003
1.980535e+003,9.623053e-003
1.982464e+003,9.556559e-003
1.984392e+003,9.519675e-003
1.986321e+003,9.652764e-003
1.988249e+003,9.829647e-003
1.990178e+003,9.878251e-003
1.992106e+003,9.876760e-003
1.994035e+003,9.985479e-003
1.995963e+003,1.013377e-002
1.997891e+003,1.010677e-002
1.999820e+003,1.020459e-002
2.001748e+003,1.036399e-002
2.003677e+003,1.038703e-002
2.005605e+003,1.024961e-002
2.007534e+003,1.044740e-002
2.009462e+003,1.062957e-002
2.011391e+003,1.059130e-002
2.013319e+003,1.074330e-002
2.015248e+003,1.110581e-002
2.017176e+003,1.112311e-002
2.019105e+003,1.096225e-002
2.021033e+003,1.101092e-002
2.022962e+003,1.105455e-002
2.024890e+003,1.111618e-002
2.026818e+003,1.120552e-002
2.028747e+003,1.129209e-002
2.030675e+003,1.132587e-002
2.032604e+003,1.156852e-002
2.034532e+003,1.179814e-002
2.036461e+003,1.183300e-002
2.038389e+003,1.166684e-002
2.040318e+003,1.170993e-002
2.042246e+003,1.195400e-002
2.044175e+003,1.199208e-002
2.046103e+003,1.198223e-002
2.048032e+003,1.204324e-002
2.049960e+003,1.212075e-002
2.051889e+003,1.230280e-002
2.053817e+003,1.232850e-002
2.055746e+003,1.230498e-002
2.057674e+003,1.241018e-002
2.059603e+003,1.254024e-002
2.061531e+003,1.255947e-002
2.063459e+003,1.252741e-002
2.065388e+003,1.275914e-002
2.067316e+003,1.293081e-002
2.069245e+003,1.298277e-002
2.071173e+003,1.273765e-002
2.073102e+003,1.262445e-002
2.075030e+003,1.291678e-002
2.076959e+003,1.311132e-002
2.078887e+003,1.309534e-002
2.080816e+003,1.308513e-002
2.082744e+003,1.303995e-002
2.084673e+003,1.308492e-002
2.086601e+003,1.311836e-002
2.088530e+003,1.328501e-002
2.090458e+003,1.331169e-002
2.092386e+003,1.328596e-002
2.094315e+003,1.339540e-002
2.096243e+003,1.334856e-002
2.098172e+003,1.328989e-002
2.100100e+003,1.330076e-002
2.102029e+003,1.336383e-002
2.103957e+003,1.363231e-002
2.105886e+003,1.359542e-002
2.107814e+003,1.337213e-002
2.109743e+003,1.332331e-002
2.111671e+003,1.330103e-002
2.113600e+003,1.346355e-002
2.115528e+003,1.356520e-002
2.117457e+003,1.336198e-002
2.119385e+003,1.337432e-002
2.121313e+003,1.365594e-002
2.123242e+003,1.344865e-002
2.125170e+003,1.332423e-002
2.127099e+003,1.336024e-002
2.129027e+003,1.343880e-002
2.130956e+003,1.336916e-002
2.132884e+003,1.327066e-002
2.134813e+003,1.337992e-002
2.136741e+003,1.348074e-002
2.138670e+003,1.341803e-002
2.140598e+003,1.337456e-002
2.142527e+003,1.341365e-002
2.144455e+003,1.336188e-002
2.146384e+003,1.316405e-002
2.148312e+003,1.312348e-002
2.150240e+003,1.307253e-002
2.152169e+003,1.289971e-002
2.154097e+003,1.288268e-002
2.156026e+003,1.290132e-002
2.157954e+003,1.274120e-002
2.159883e+003,1.260190e-002
2.161811e+003,1.273290e-002
2.163740e+003,1.266238e-002
2.165668e+003,1.235335e-002
2.167597e+003,1.232318e-002
2.169525e+003,1.236095e-002
2.171454e+003,1.229826e-002
2.173382e+003,1.217625e-002
2.175311e+003,1.205826e-002
2.177239e+003,1.216770e-002
2.179167e+003,1.212453e-002
2.181096e+003,1.193227e-002
2.183024e+003,1.197624e-002
2.184953e+003,1.185742e-002
2.186881e+003,1.157495e-002
2.188810e+003,1.150319e-002
2.190738e+003,1.130046e-002
2.192667e+003,1.138195e-002
2.194595e+003,1.141532e-002
2.196524e+003,1.118349e-002
2.198452e+003,1.108735e-002
2.200381e+003,1.103263e-002
2.202309e+003,1.103637e-002
2.204238e+003,1.111971e-002
2.206166e+003,1.091954e-002
2.208094e+003,1.064706e-002
2.210023e+003,1.058017e-002
2.211951e+003,1.060634e-002
2.213880e+003,1.047877e-002
2.215808e+003,1.028072e-002
2.217737e+003,1.016650e-002
2.219665e+003,1.026152e-002
2.221594e+003,1.017054e-002
2.223522e+003,9.853846e-003
2.225451e+003,9.817649e-003
2.227379e+003,9.988462e-003
2.229308e+003,9.970358e-003
2.231236e+003,9.663233e-003
2.233165e+003,9.470568e-003
2.235093e+003,9.282830e-003
2.237021e+003,9.370781e-003
2.238950e+003,9.438804e-003
2.240878e+003,9.069290e-003
2.242807e+003,8.913989e-003
2.244735e+003,8.848956e-003
2.246664e+003,8.853859e-003
2.248592e+003,8.901035e-003
2.250521e+003,8.784676e-003
2.252449e+003,8.691469e-003
2.254378e+003,8.633364e-003
2.256306e+003,8.692889e-003
2.258235e+003,8.580167e-003
2.260163e+003,8.283040e-003
2.262092e+003,8.384165e-003
2.264020e+003,8.460988e-003
2.265948e+003,8.303608e-003
2.267877e+003,7.961413e-003
2.269805e+003,7.891259e-003
2.271734e+003,8.214050e-003
2.273662e+003,8.343564e-003
2.275591e+003,8.147635e-003
2.277519e+003,7.946463e-003
2.279448e+003,7.802460e-003
2.281376e+003,7.635978e-003
2.283305e+003,7.639620e-003
2.285233e+003,7.813930e-003
2.287162e+003,7.742686e-003
2.289090e+003,7.396214e-003
2.291019e+003,7.048032e-003
2.292947e+003,6.995096e-003
2.294875e+003,7.065375e-003
2.296804e+003,6.949843e-003
2.298732e+003,6.783115e-003
2.300661e+003,6.719006e-003
2.302589e+003,6.867330e-003
2.304518e+003,6.822763e-003
2.306446e+003,6.682429e-003
2.308375e+003,6.745355e-003
2.310303e+003,6.626678e-003
2.312232e+003,6.524683e-003
2.314160e+003,6.341206e-003
2.316089e+003,6.236589e-003
2.318017e+003,6.375871e-003
2.319946e+003,6.267346e-003
2.321874e+003,6.017452e-003
2.323802e+003,6.313907e-003
2.325731e+003,6.376880e-003
2.327659e+003,6.177669e-003
2.329588e+003,6.145103e-003
2.331516e+003,6.095705e-003
2.333445e+003,5.683331e-003
2.335373e+003,5.533498e-003
2.337302e+003,5.660738e-003
2.339230e+003,5.718279e-003
2.341159e+003,5.709785e-003
2.343087e+003,5.612637e-003
2.345016e+003,5.540478e-003
2.346944e+003,5.420688e-003
2.348873e+003,5.330145e-003
2.350801e+003,5.279397e-003
2.352729e+003,5.245792e-003
2.354658e+003,5.107441e-003
2.356586e+003,4.998563e-003
2.358515e+003,5.028830e-003
2.360443e+003,5.001345e-003
2.362372e+003,4.941754e-003
2.364300e+003,4.947854e-003
2.366229e+003,4.878921e-003
2.368157e+003,4.920440e-003
2.370086e+003,4.776834e-003
2.372014e+003,4.677281e-003
2.373943e+003,4.556590e-003
2.375871e+003,4.511490e-003
2.377800e+003,4.684885e-003
2.379728e+003,4.668104e-003
2.381656e+003,4.382209e-003
2.383585e+003,4.342248e-003
2.385513e+003,4.474898e-003
2.387442e+003,4.577049e-003
2.389370e+003,4.552773e-003
2.391299e+003,4.429338e-003
2.393227e+003,4.322771e-003
2.395156e+003,4.287667e-003
2.397084e+003,4.266887e-003
2.399013e+003,4.198899e-003
2.400941e+003,4.253570e-003
2.402870e+003,4.332309e-003
2.404798e+003,4.353694e-003
2.406727e+003,4.204352e-003
2.408655e+003,3.959588e-003
2.410583e+003,3.870018e-003
2.412512e+003,3.995401e-003
2.414440e+003,3.825357e-003
2.416369e+003,3.527122e-003
2.418297e+003,3.636200e-003
2.420226e+003,3.940495e-003
2.422154e+003,4.121556e-003
2.424083e+003,3.966376e-003
2.426011e+003,3.708244e-003
2.427940e+003,3.800321e-003
2.429868e+003,3.940094e-003
2.431797e+003,3.863299e-003
2.433725e+003,3.864201e-003
2.435654e+003,3.697216e-003
2.437582e+003,3.450098e-003
2.439510e+003,3.440814e-003
2.441439e+003,3.392390e-003
2.443367e+003,3.363438e-003
2.445296e+003,3.328078e-003
2.447224e+003,3.227622e-003
2.449153e+003,3.227289e-003
2.451081e+003,3.606832e-003
2.453010e+003,3.713390e-003
2.454938e+003,3.498763e-003
2.456867e+003,3.211266e-003
2.458795e+003,3.223984e-003
2.460724e+003,3.441281e-003
2.462652e+003,3.614850e-003
2.464581e+003,3.570616e-003
2.466509e+003,3.350850e-003
2.468438e+003,3.417069e-003
2.470366e+003,3.628683e-003
2.472294e+003,3.500900e-003
2.474223e+003,3.293589e-003
2.476151e+003,3.263075e-003
2.478080e+003,3.199250e-003
2.480008e+003,3.190070e-003
2.481937e+003,3.467366e-003
2.483865e+003,3.409855e-003
2.485794e+003,3.137803e-003
2.487722e+003,3.117879e-003
2.489651e+003,3.255697e-003
2.491579e+003,3.310783e-003
2.493508e+003,3.069324e-003
2.495436e+003,2.926895e-003
2.497365e+003,2.968962e-003
2.499293e+003,3.090948e-003
2.501221e+003,3.114342e-003
2.503150e+003,2.865921e-003
2.505078e+003,2.856015e-003
2.507007e+003,3.051739e-003
2.508935e+003,3.100726e-003
2.510864e+003,3.048903e-003
2.512792e+003,3.123619e-003
2.514721e+003,3.237570e-003
2.516649e+003,3.238705e-003
2.518578e+003,2.976935e-003
2.520506e+003,2.864020e-003
2.522435e+003,3.093718e-003
2.524363e+003,3.126489e-003
2.526292e+003,2.900576e-003
2.528220e+003,2.872925e-003
2.530148e+003,3.152655e-003
2.532077e+003,3.240441e-003
2.534005e+003,3.148016e-003
2.535934e+003,2.980405e-003
2.537862e+003,2.749400e-003
2.539791e+003,2.864587e-003
2.541719e+003,3.018907e-003
2.543648e+003,2.823631e-003
2.545576e+003,2.552712e-003
2.547505e+003,2.599475e-003
2.549433e+003,2.752534e-003
2.551362e+003,2.861952e-003
2.553290e+003,2.962957e-003
2.555219e+003,2.922725e-003
2.557147e+003,2.707354e-003
2.559075e+003,2.817394e-003
2.561004e+003,3.149684e-003
2.562932e+003,3.220312e-003
2.564861e+003,3.237237e-003
2.566789e+003,3.065253e-003
2.568718e+003,2.980005e-003
2.570646e+003,2.951247e-003
2.572575e+003,2.753801e-003
2.574503e+003,2.888902e-003
2.576432e+003,3.098657e-003
2.578360e+003,3.206827e-003
2.580289e+003,3.117645e-003
2.582217e+003,2.919123e-003
2.584146e+003,2.808223e-003
2.586074e+003,2.872658e-003
2.588002e+003,2.901444e-003
2.589931e+003,2.905880e-003
2.591859e+003,2.649078e-003
2.593788e+003,2.503021e-003
2.595716e+003,2.551545e-003
2.597645e+003,2.759536e-003
2.599573e+003,3.019941e-003
2.601502e+003,2.925694e-003
2.603430e+003,2.910083e-003
2.605359e+003,3.154924e-003
2.607287e+003,3.274258e-003
2.609216e+003,3.147815e-003
2.611144e+003,3.140606e-003
2.613073e+003,3.226020e-003
2.615001e+003,3.079268e-003
2.616929e+003,2.946910e-003
2.618858e+003,3.039827e-003
2.620786e+003,3.131028e-003
2.622715e+003,2.943475e-003
2.624643e+003,2.866488e-003
2.626572e+003,3.033287e-003
2.628500e+003,3.146247e-003
2.630429e+003,3.100859e-003
2.632357e+003,3.098723e-003
2.634286e+003,2.877728e-003
2.636214e+003,2.816861e-003
2.638143e+003,2.919323e-003
2.640071e+003,3.012033e-003
2.642000e+003,3.006628e-003
2.643928e+003,3.255096e-003
2.645856e+003,3.297094e-003
2.647785e+003,3.064886e-003
2.649713e+003,2.923059e-003
2.651642e+003,2.914286e-003
2.653570e+003,3.086276e-003
2.655499e+003,3.324239e-003
2.657427e+003,3.226254e-003
2.659356e+003,3.132997e-003
2.661284e+003,3.030551e-003
2.663213e+003,2.867022e-003
2.665141e+003,2.861151e-003
2.667070e+003,2.895540e-003
2.668998e+003,3.133297e-003
2.670927e+003,3.114342e-003
2.672855e+003,3.019574e-003
2.674783e+003,3.297862e-003
2.676712e+003,3.628081e-003
2.678640e+003,3.521109e-003
2.680569e+003,3.279934e-003
2.682497e+003,3.182160e-003
2.684426e+003,3.523815e-003
2.686354e+003,3.456077e-003
2.688283e+003,3.282071e-003
2.690211e+003,3.411091e-003
2.692140e+003,3.390453e-003
2.694068e+003,3.718403e-003
2.695997e+003,4.082789e-003
2.697925e+003,4.027271e-003
2.699854e+003,4.066032e-003
2.701782e+003,4.042353e-003
2.703710e+003,3.821212e-003
2.705639e+003,3.535139e-003
2.707567e+003,3.383908e-003
2.709496e+003,3.591831e-003
2.711424e+003,3.689931e-003
2.713353e+003,3.858685e-003
2.715281e+003,3.869049e-003
2.717210e+003,3.668612e-003
2.719138e+003,3.984901e-003
2.721067e+003,4.233962e-003
2.722995e+003,4.061082e-003
2.724924e+003,4.110852e-003
2.726852e+003,4.086535e-003
2.728781e+003,4.059310e-003
2.730709e+003,4.002356e-003
2.732637e+003,3.927690e-003
2.734566e+003,4.111889e-003
2.736494e+003,4.512629e-003
2.738423e+003,4.523979e-003
2.740351e+003,4.320930e-003
2.742280e+003,4.435497e-003
2.744208e+003,4.817237e-003
2.746137e+003,4.885891e-003
2.748065e+003,4.880530e-003
2.749994e+003,5.193042e-003
2.751922e+003,5.309013e-003
2.753851e+003,5.337055e-003
2.755779e+003,5.337055e-003
2.757708e+003,5.264740e-003
2.759636e+003,5.337256e-003
2.761564e+003,5.216851e-003
2.763493e+003,5.241432e-003
2.765421e+003,5.195221e-003
2.767350e+003,5.095071e-003
2.769278e+003,4.996954e-003
2.771207e+003,5.018003e-003
2.773135e+003,5.211150e-003
2.775064e+003,5.383247e-003
2.776992e+003,5.714150e-003
2.778921e+003,6.104744e-003
2.780849e+003,5.958830e-003
2.782778e+003,5.929472e-003
2.784706e+003,6.202708e-003
2.786635e+003,6.156462e-003
2.788563e+003,6.271380e-003
2.790491e+003,6.463605e-003
2.792420e+003,6.785269e-003
2.794348e+003,6.916244e-003
2.796277e+003,6.899613e-003
2.798205e+003,6.973479e-003
2.800134e+003,7.008195e-003
2.802062e+003,6.987991e-003
2.803991e+003,7.256941e-003
2.805919e+003,7.469120e-003
2.807848e+003,7.401675e-003
2.809776e+003,7.693342e-003
2.811705e+003,7.719413e-003
2.813633e+003,7.628255e-003
2.815562e+003,8.190954e-003
2.817490e+003,8.436562e-003
2.819418e+003,8.469029e-003
2.821347e+003,8.315261e-003
2.823275e+003,8.399131e-003
2.825204e+003,8.890180e-003
2.827132e+003,9.240655e-003
2.829061e+003,9.327481e-003
2.830989e+003,9.459156e-003
2.832918e+003,9.640804e-003
2.834846e+003,9.718730e-003
2.836775e+003,9.881370e-003
2.838703e+003,1.010813e-002
2.840632e+003,1.031394e-002
2.842560e+003,1.025555e-002
2.844489e+003,1.042395e-002
2.846417e+003,1.103290e-002
2.848345e+003,1.112009e-002
2.850274e+003,1.092222e-002
2.852202e+003,1.096531e-002
2.854131e+003,1.134182e-002
2.856059e+003,1.164087e-002
2.857988e+003,1.183556e-002
2.859916e+003,1.199872e-002
2.861845e+003,1.206603e-002
2.863773e+003,1.247626e-002
2.865702e+003,1.285606e-002
2.867630e+003,1.315975e-002
2.869558e+003,1.342937e-002
2.871487e+003,1.376441e-002
2.873415e+003,1.418258e-002
2.875344e+003,1.452043e-002
2.877272e+003,1.471898e-002
2.879201e+003,1.532071e-002
2.881129e+003,1.584931e-002
2.883058e+003,1.612002e-002
2.884986e+003,1.616074e-002
2.886915e+003,1.622718e-002
2.888843e+003,1.654353e-002
2.890771e+003,1.680304e-002
2.892700e+003,1.699378e-002
2.894628e+003,1.703575e-002
2.896557e+003,1.759577e-002
2.898485e+003,1.776522e-002
2.900414e+003,1.759428e-002
2.902342e+003,1.831654e-002
2.904271e+003,1.901129e-002
2.906199e+003,1.930920e-002
2.908128e+003,1.923397e-002
2.910056e+003,1.923300e-002
2.911985e+003,1.987917e-002
2.913913e+003,2.053471e-002
2.915842e+003,2.095350e-002
2.917770e+003,2.098869e-002
2.919698e+003,2.111310e-002
2.921627e+003,2.157403e-002
2.923555e+003,2.176598e-002
2.925484e+003,2.180311e-002
2.927412e+003,2.215559e-002
2.929341e+003,2.269597e-002
2.931269e+003,2.292421e-002
2.933198e+003,2.324768e-002
2.935126e+003,2.384651e-002
2.937055e+003,2.447476e-002
2.938983e+003,2.479945e-002
2.940912e+003,2.495787e-002
2.942840e+003,2.558310e-002
2.944769e+003,2.609215e-002
2.946697e+003,2.628529e-002
2.948625e+003,2.660391e-002
2.950554e+003,2.689079e-002
2.952482e+003,2.734749e-002
2.954411e+003,2.761897e-002
2.956339e+003,2.778115e-002
2.958268e+003,2.815559e-002
2.960196e+003,2.865651e-002
2.962125e+003,2.924874e-002
2.964053e+003,2.991213e-002
2.965982e+003,3.045813e-002
2.967910e+003,3.110336e-002
2.969839e+003,3.148923e-002
2.971767e+003,3.190956e-002
2.973696e+003,3.191755e-002
2.975624e+003,3.223873e-002
2.977552e+003,3.323980e-002
2.979481e+003,3.366409e-002
2.981409e+003,3.427169e-002
2.983338e+003,3.517811e-002
2.985266e+003,3.590428e-002
2.987195e+003,3.612729e-002
2.989123e+003,3.642868e-002
2.991052e+003,3.711771e-002
2.992980e+003,3.756333e-002
2.994909e+003,3.786521e-002
2.996837e+003,3.794295e-002
2.998766e+003,3.869455e-002
3.000694e+003,3.971455e-002
3.002623e+003,4.035395e-002
3.004551e+003,4.084171e-002
3.006479e+003,4.165513e-002
3.008408e+003,4.265741e-002
3.010336e+003,4.337240e-002
3.012265e+003,4.370971e-002
3.014193e+003,4.422209e-002
3.016122e+003,4.506161e-002
3.018050e+003,4.588191e-002
3.019979e+003,4.668797e-002
3.021907e+003,4.769507e-002
3.023836e+003,4.876137e-002
3.025764e+003,4.925247e-002
3.027693e+003,4.973576e-002
3.029621e+003,5.074799e-002
3.031550e+003,5.186879e-002
3.033478e+003,5.275096e-002
3.035406e+003,5.324202e-002
3.037335e+003,5.394079e-002
3.039263e+003,5.502271e-002
3.041192e+003,5.603242e-002
3.043120e+003,5.735178e-002
3.045049e+003,5.834388e-002
3.046977e+003,5.893636e-002
3.048906e+003,6.020144e-002
3.050834e+003,6.170775e-002
3.052763e+003,6.310258e-002
3.054691e+003,6.406099e-002
3.056620e+003,6.496014e-002
3.058548e+003,6.620799e-002
3.060477e+003,6.730853e-002
3.062405e+003,6.785031e-002
3.064333e+003,6.863315e-002
3.066262e+003,6.994914e-002
3.068190e+003,7.153037e-002
3.070119e+003,7.284773e-002
3.072047e+003,7.432663e-002
3.073976e+003,7.552940e-002
3.075904e+003,7.666089e-002
3.077833e+003,7.819092e-002
3.079761e+003,7.974748e-002
3.081690e+003,8.089628e-002
3.083618e+003,8.231758e-002
3.085547e+003,8.430812e-002
3.087475e+003,8.576708e-002
3.089404e+003,8.688451e-002
3.091332e+003,8.761532e-002
3.093260e+003,8.896596e-002
3.095189e+003,9.057046e-002
3.097117e+003,9.231232e-002
3.099046e+003,9.375698e-002
3.100974e+003,9.532046e-002
3.102903e+003,9.675166e-002
3.104831e+003,9.781385e-002
3.106760e+003,9.918594e-002
3.108688e+003,1.009669e-001
3.110617e+003,1.027155e-001
3.112545e+003,1.043394e-001
3.114474e+003,1.061698e-001
3.116402e+003,1.078076e-001
3.118331e+003,1.098054e-001
3.120259e+003,1.112606e-001
3.122188e+003,1.126782e-001
3.124116e+003,1.145665e-001
3.126044e+003,1.159624e-001
3.127973e+003,1.174412e-001
3.129901e+003,1.191879e-001
3.131830e+003,1.214651e-001
3.133758e+003,1.237649e-001
3.135687e+003,1.256772e-001
3.137615e+003,1.274241e-001
3.139544e+003,1.288704e-001
3.141472e+003,1.307172e-001
3.143401e+003,1.321840e-001
3.145329e+003,1.337358e-001
3.147258e+003,1.363732e-001
3.149186e+003,1.380681e-001
3.151115e+003,1.394057e-001
3.153043e+003,1.416513e-001
3.154971e+003,1.434179e-001
3.156900e+003,1.445663e-001
3.158828e+003,1.464338e-001
3.160757e+003,1.485550e-001
3.162685e+003,1.505872e-001
3.164614e+003,1.528149e-001
3.166542e+003,1.542176e-001
3.168471e+003,1.555049e-001
3.170399e+003,1.571718e-001
3.172328e+003,1.591605e-001
3.174256e+003,1.613180e-001
3.176185e+003,1.633694e-001
3.178113e+003,1.655089e-001
3.180042e+003,1.670109e-001
3.181970e+003,1.684154e-001
3.183898e+003,1.704598e-001
3.185827e+003,1.718667e-001
3.187755e+003,1.735013e-001
3.189684e+003,1.750622e-001
3.191612e+003,1.759508e-001
3.193541e+003,1.774491e-001
3.195469e+003,1.791825e-001
3.197398e+003,1.809128e-001
3.199326e+003,1.825853e-001
3.201255e+003,1.840920e-001
3.203183e+003,1.849518e-001
3.205112e+003,1.863300e-001
3.207040e+003,1.887254e-001
3.208969e+003,1.899492e-001
3.210897e+003,1.905315e-001
3.212825e+003,1.915245e-001
3.214754e+003,1.924790e-001
3.216682e+003,1.935111e-001
3.218611e+003,1.951257e-001
3.220539e+003,1.965220e-001
3.222468e+003,1.977450e-001
3.224396e+003,1.980129e-001
3.226325e+003,1.988466e-001
3.228253e+003,2.000677e-001
3.230182e+003,2.007073e-001
3.232110e+003,2.018392e-001
3.234039e+003,2.025836e-001
3.235967e+003,2.026431e-001
3.237896e+003,2.036706e-001
3.239824e+003,2.043708e-001
3.241752e+003,2.044597e-001
3.243681e+003,2.053154e-001
3.245609e+003,2.059135e-001
3.247538e+003,2.069447e-001
3.249466e+003,2.073624e-001
3.251395e+003,2.070319e-001
3.253323e+003,2.070804e-001
3.255252e+003,2.083295e-001
3.257180e+003,2.081901e-001
3.259109e+003,2.077356e-001
3.261037e+003,2.086918e-001
3.262966e+003,2.092314e-001
3.264894e+003,2.095757e-001
3.266823e+003,2.097990e-001
3.268751e+003,2.100590e-001
3.270679e+003,2.101927e-001
3.272608e+003,2.101562e-001
3.274536e+003,2.102218e-001
3.276465e+003,2.103999e-001
3.278393e+003,2.108438e-001
3.280322e+003,2.115104e-001
3.282250e+003,2.114531e-001
3.284179e+003,2.111270e-001
3.286107e+003,2.112964e-001
3.288036e+003,2.116274e-001
3.289964e+003,2.115328e-001
3.291893e+003,2.114706e-001
3.293821e+003,2.115259e-001
3.295750e+003,2.114521e-001
3.297678e+003,2.122821e-001
3.299606e+003,2.131063e-001
3.301535e+003,2.122645e-001
3.303463e+003,2.124825e-001
3.305392e+003,2.127261e-001
3.307320e+003,2.120895e-001
3.309249e+003,2.128273e-001
3.311177e+003,2.136676e-001
3.313106e+003,2.127637e-001
3.315034e+003,2.125244e-001
3.316963e+003,2.129287e-001
3.318891e+003,2.129839e-001
3.320820e+003,2.134532e-001
3.322748e+003,2.136399e-001
3.324677e+003,2.138122e-001
3.326605e+003,2.137747e-001
3.328533e+003,2.138489e-001
3.330462e+003,2.139320e-001
3.332390e+003,2.136210e-001
3.334319e+003,2.136779e-001
3.336247e+003,2.143988e-001
3.338176e+003,2.153548e-001
3.340104e+003,2.147297e-001
3.342033e+003,2.149054e-001
3.343961e+003,2.151546e-001
3.345890e+003,2.145172e-001
3.347818e+003,2.145913e-001
3.349747e+003,2.146401e-001
3.351675e+003,2.144104e-001
3.353604e+003,2.140329e-001
3.355532e+003,2.138367e-001
3.357460e+003,2.132777e-001
3.359389e+003,2.131106e-001
3.361317e+003,2.124660e-001
3.363246e+003,2.121130e-001
3.365174e+003,2.128112e-001
3.367103e+003,2.128473e-001
3.369031e+003,2.124285e-001
3.370960e+003,2.117239e-001
3.372888e+003,2.113349e-001
3.374817e+003,2.111526e-001
3.376745e+003,2.104532e-001
3.378674e+003,2.103647e-001
3.380602e+003,2.105034e-001
3.382531e+003,2.099709e-001
3.384459e+003,2.079805e-001
3.386387e+003,2.068228e-001
3.388316e+003,2.067213e-001
3.390244e+003,2.050205e-001
3.392173e+003,2.034980e-001
3.394101e+003,2.027365e-001
3.396030e+003,2.017437e-001
3.397958e+003,2.003393e-001
3.399887e+003,2.001670e-001
3.401815e+003,1.989321e-001
3.403744e+003,1.974579e-001
3.405672e+003,1.964784e-001
3.407601e+003,1.953771e-001
3.409529e+003,1.943228e-001
3.411458e+003,1.942940e-001
3.413386e+003,1.932879e-001
3.415314e+003,1.905916e-001
3.417243e+003,1.891322e-001
3.419171e+003,1.885173e-001
3.421100e+003,1.877979e-001
3.423028e+003,1.874236e-001
3.424957e+003,1.860809e-001
3.426885e+003,1.834911e-001
3.428814e+003,1.823327e-001
3.430742e+003,1.810554e-001
3.432671e+003,1.787237e-001
3.434599e+003,1.769169e-001
3.436528e+003,1.766645e-001
3.438456e+003,1.759053e-001
3.440385e+003,1.743899e-001
3.442313e+003,1.723113e-001
3.444241e+003,1.701146e-001
3.446170e+003,1.696735e-001
3.448098e+003,1.684626e-001
3.450027e+003,1.668380e-001
3.451955e+003,1.655311e-001
3.453884e+003,1.641261e-001
3.455812e+003,1.632318e-001
3.457741e+003,1.621229e-001
3.459669e+003,1.603615e-001
3.461598e+003,1.584903e-001
3.463526e+003,1.571692e-001
3.465455e+003,1.565994e-001
3.467383e+003,1.550769e-001
3.469312e+003,1.527952e-001
3.471240e+003,1.507696e-001
3.473168e+003,1.495927e-001
3.475097e+003,1.491638e-001
3.477025e+003,1.476317e-001
3.478954e+003,1.458862e-001
3.480882e+003,1.445041e-001
3.482811e+003,1.422006e-001
3.484739e+003,1.412027e-001
3.486668e+003,1.408892e-001
3.488596e+003,1.395266e-001
3.490525e+003,1.369704e-001
3.492453e+003,1.351016e-001
3.494382e+003,1.342174e-001
3.496310e+003,1.327210e-001
3.498239e+003,1.303035e-001
3.500167e+003,1.284367e-001
3.502095e+003,1.273312e-001
3.504024e+003,1.264095e-001
3.505952e+003,1.247927e-001
3.507881e+003,1.237076e-001
3.509809e+003,1.228245e-001
3.511738e+003,1.209810e-001
3.513666e+003,1.195492e-001
3.515595e+003,1.177751e-001
3.517523e+003,1.157811e-001
3.519452e+003,1.141716e-001
3.521380e+003,1.132670e-001
3.523309e+003,1.114868e-001
3.525237e+003,1.100138e-001
3.527166e+003,1.092012e-001
3.529094e+003,1.073317e-001
3.531022e+003,1.056134e-001
3.532951e+003,1.042480e-001
3.534879e+003,1.028312e-001
3.536808e+003,1.018212e-001
3.538736e+003,9.965359e-002
3.540665e+003,9.780058e-002
3.542593e+003,9.707899e-002
3.544522e+003,9.633105e-002
3.546450e+003,9.543524e-002
3.548379e+003,9.354018e-002
3.550307e+003,9.260409e-002
3.552236e+003,9.180948e-002
3.554164e+003,9.011073e-002
3.556093e+003,8.897149e-002
3.558021e+003,8.756651e-002
3.559949e+003,8.558720e-002
3.561878e+003,8.405927e-002
3.563806e+003,8.271139e-002
3.565735e+003,8.108557e-002
3.567663e+003,7.938506e-002
3.569592e+003,7.884034e-002
3.571520e+003,7.788216e-002
3.573449e+003,7.644380e-002
3.575377e+003,7.496516e-002
3.577306e+003,7.376544e-002
3.579234e+003,7.234535e-002
3.581163e+003,7.096580e-002
3.583091e+003,7.032438e-002
3.585020e+003,6.969835e-002
3.586948e+003,6.817063e-002
3.588876e+003,6.670007e-002
3.590805e+003,6.545058e-002
3.592733e+003,6.461281e-002
3.594662e+003,6.352959e-002
3.596590e+003,6.181753e-002
3.598519e+003,6.075249e-002
3.600447e+003,6.022089e-002
3.602376e+003,5.886298e-002
3.604304e+003,5.772219e-002
3.606233e+003,5.652823e-002
3.608161e+003,5.471870e-002
3.610090e+003,5.330664e-002
3.612018e+003,5.257425e-002
3.613947e+003,5.149240e-002
3.615875e+003,5.047115e-002
3.617803e+003,4.926761e-002
3.619732e+003,4.846279e-002
3.621660e+003,4.787553e-002
3.623589e+003,4.622408e-002
3.625517e+003,4.525812e-002
3.627446e+003,4.455378e-002
3.629374e+003,4.286175e-002
3.631303e+003,4.158026e-002
3.633231e+003,4.058283e-002
3.635160e+003,3.952449e-002
3.637088e+003,3.827650e-002
3.639017e+003,3.666494e-002
3.640945e+003,3.542786e-002
3.642874e+003,3.445018e-002
3.644802e+003,3.261260e-002
3.646730e+003,3.067448e-002
3.648659e+003,2.929461e-002
3.650587e+003,2.885802e-002
3.652516e+003,2.835457e-002
3.654444e+003,2.703619e-002
3.656373e+003,2.596230e-002
3.658301e+003,2.485682e-002
3.660230e+003,2.311878e-002
3.662158e+003,2.110367e-002
3.664087e+003,1.944529e-002
3.666015e+003,1.803619e-002
3.667944e+003,1.695874e-002
3.669872e+003,1.619509e-002
3.671801e+003,1.542287e-002
3.673729e+003,1.509131e-002
3.675657e+003,1.439629e-002
3.677586e+003,1.307386e-002
3.679514e+003,1.167338e-002
3.681443e+003,1.094992e-002
3.683371e+003,1.010467e-002
3.685300e+003,9.477138e-003
3.687228e+003,9.047738e-003
3.689157e+003,8.560533e-003
3.691085e+003,8.488457e-003
3.693014e+003,7.284199e-003
3.694942e+003,6.141440e-003
3.696871e+003,5.763807e-003
3.698799e+003,5.691723e-003
3.700728e+003,5.151967e-003
3.702656e+003,4.983279e-003
3.704584e+003,4.278130e-003
3.706513e+003,3.855543e-003
3.708441e+003,3.809112e-003
3.710370e+003,3.992592e-003
3.712298e+003,3.942635e-003
3.714227e+003,3.355892e-003
3.716155e+003,2.860151e-003
3.718084e+003,2.317670e-003
3.720012e+003,2.630976e-003
3.721941e+003,2.532581e-003
3.723869e+003,2.847277e-003
3.725798e+003,2.928963e-003
3.727726e+003,2.320968e-003
3.729655e+003,1.746490e-003
3.731583e+003,1.534561e-003
3.733511e+003,1.735079e-003
3.735440e+003,1.658406e-003
3.737368e+003,1.541677e-003
3.739297e+003,1.109717e-003
3.741225e+003,6.541276e-004
3.743154e+003,1.057965e-003
3.745082e+003,7.664699e-004
3.747011e+003,9.840685e-004
3.748939e+003,1.015353e-003
3.750868e+003,6.331558e-004
3.752796e+003,3.155838e-004
3.754725e+003,-1.126742e-004
3.756653e+003,7.399461e-005
3.758582e+003,-2.117743e-004
3.760510e+003,-9.357567e-004
3.762438e+003,-7.761667e-004
3.764367e+003,-2.559182e-004
3.766295e+003,-2.448537e-005
3.768224e+003,-5.448125e-004
3.770152e+003,-1.472826e-003
3.772081e+003,-1.194429e-003
3.774009e+003,-5.765801e-004
3.775938e+003,-7.750422e-004
3.777866e+003,-1.527177e-003
3.779795e+003,-1.513540e-003
3.781723e+003,-1.293084e-003
3.783652e+003,-1.342998e-003
3.785580e+003,-1.437359e-003
3.787509e+003,-1.395251e-003
3.789437e+003,-1.134617e-003
3.791365e+003,-1.064054e-003
3.793294e+003,-1.459353e-003
3.795222e+003,-1.727152e-003
3.797151e+003,-1.915193e-003
3.799079e+003,-1.962099e-003
3.801008e+003,-1.622719e-003
3.802936e+003,-1.274980e-003
3.804865e+003,-1.616249e-003
3.806793e+003,-1.870359e-003
3.808722e+003,-1.426065e-003
3.810650e+003,-1.441454e-003
3.812579e+003,-2.018203e-003
3.814507e+003,-2.414644e-003
3.816436e+003,-2.220128e-003
3.818364e+003,-1.451229e-003
3.820292e+003,-1.343625e-003
3.822221e+003,-1.204837e-003
3.824149e+003,-1.357862e-003
3.826078e+003,-1.829448e-003
3.828006e+003,-1.643119e-003
3.829935e+003,-1.277193e-003
3.831863e+003,-1.163929e-003
3.833792e+003,-1.521497e-003
3.835720e+003,-1.850531e-003
3.837649e+003,-2.369829e-003
3.839577e+003,-2.545569e-003
3.841506e+003,-2.163820e-003
3.843434e+003,-2.222402e-003
3.845363e+003,-2.158578e-003
3.847291e+003,-1.809155e-003
3.849219e+003,-1.386003e-003
3.851148e+003,-1.524337e-003
3.853076e+003,-1.736294e-003
3.855005e+003,-1.696327e-003
3.856933e+003,-2.282922e-003
3.858862e+003,-2.807860e-003
3.860790e+003,-2.365051e-003
3.862719e+003,-2.086764e-003
3.864647e+003,-1.863497e-003
3.866576e+003,-1.753058e-003
3.868504e+003,-2.012695e-003
3.870433e+003,-2.411217e-003
3.872361e+003,-2.748863e-003
3.874290e+003,-2.563423e-003
3.876218e+003,-2.279560e-003
3.878146e+003,-2.488743e-003
3.880075e+003,-2.414546e-003
3.882003e+003,-2.341620e-003
3.883932e+003,-2.152313e-003
3.885860e+003,-2.319737e-003
3.887789e+003,-2.544614e-003
3.889717e+003,-2.551268e-003
3.891646e+003,-2.829488e-003
3.893574e+003,-2.622215e-003
3.895503e+003,-2.710635e-003
3.897431e+003,-2.975262e-003
3.899360e+003,-3.214468e-003
3.901288e+003,-3.097991e-003
3.903217e+003,-3.149737e-003
3.905145e+003,-2.756732e-003
3.907073e+003,-2.209052e-003
3.909002e+003,-2.445814e-003
3.910930e+003,-3.132631e-003
3.912859e+003,-3.220948e-003
3.914787e+003,-2.871919e-003
3.916716e+003,-2.597414e-003
3.918644e+003,-3.154704e-003
3.920573e+003,-3.452196e-003
3.922501e+003,-2.767794e-003
3.924430e+003,-2.563983e-003
3.926358e+003,-2.800321e-003
3.928287e+003,-2.696970e-003
3.930215e+003,-2.521324e-003
3.932144e+003,-2.030900e-003
3.934072e+003,-2.039672e-003
3.936000e+003,-2.617966e-003
3.937929e+003,-2.660154e-003
3.939857e+003,-2.255959e-003
3.941786e+003,-2.427264e-003
3.943714e+003,-2.619185e-003
3.945643e+003,-2.623499e-003
3.947571e+003,-2.822114e-003
3.949500e+003,-3.412814e-003
3.951428e+003,-3.451736e-003
3.953357e+003,-2.538059e-003
3.955285e+003,-2.305466e-003
3.957214e+003,-2.260739e-003
3.959142e+003,-2.070474e-003
3.961071e+003,-2.152083e-003
3.962999e+003,-1.886129e-003
3.964927e+003,-1.851191e-003
3.966856e+003,-2.692557e-003
3.968784e+003,-3.034163e-003
3.970713e+003,-2.993690e-003
3.972641e+003,-3.048212e-003
3.974570e+003,-3.469124e-003
3.976498e+003,-3.568185e-003
3.978427e+003,-2.846902e-003
3.980355e+003,-2.643358e-003
3.982284e+003,-2.903648e-003
3.984212e+003,-2.852893e-003
3.986141e+003,-2.615628e-003
3.988069e+003,-2.900324e-003
3.989998e+003,-3.470144e-003
3.991926e+003,-2.930603e-003
3.993854e+003,-2.452173e-003
3.995783e+003,-2.612894e-003
3.997711e+003,-2.854243e-003
3.999640e+003,-2.866389e-003
4.001568e+003,0.000000e+000
