3.991927e+002,0.000000e+000
4.011211e+002,0.000000e+000
4.030496e+002,0.000000e+000
4.049781e+002,0.000000e+000
4.069065e+002,0.000000e+000
4.088350e+002,0.000000e+000
4.107635e+002,0.000000e+000
4.126919e+002,0.000000e+000
4.146204e+002,0.000000e+000
4.165489e+002,0.000000e+000
4.184773e+002,0.000000e+000
4.204058e+002,0.000000e+000
4.223343e+002,0.000000e+000
4.242627e+002,0.000000e+000
4.261912e+002,0.000000e+000
4.281197e+002,0.000000e+000
4.300481e+002,0.000000e+000
4.319766e+002,0.000000e+000
4.339051e+002,0.000000e+000
4.358335e+002,0.000000e+000
4.377620e+002,0.000000e+000
4.396905e+002,0.000000e+000
4.416189e+002,0.000000e+000
4.435474e+002,0.000000e+000
4.454759e+002,0.000000e+000
4.474043e+002,0.000000e+000
4.493328e+002,0.000000e+000
4.512613e+002,0.000000e+000
4.531897e+002,0.000000e+000
4.551182e+002,0.000000e+000
4.570467e+002,0.000000e+000
4.589751e+002,0.000000e+000
4.609036e+002,0.000000e+000
4.628321e+002,0.000000e+000
4.647605e+002,0.000000e+000
4.666890e+002,0.000000e+000
4.686175e+002,0.000000e+000
4.705459e+002,0.000000e+000
4.724744e+002,0.000000e+000
4.744029e+002,0.000000e+000
4.763313e+002,0.000000e+000
4.782598e+002,0.000000e+000
4.801883e+002,0.000000e+000
4.821167e+002,0.000000e+000
4.840452e+002,0.000000e+000
4.859737e+002,0.000000e+000
4.879021e+002,0.000000e+000
4.898306e+002,0.000000e+000
4.917591e+002,0.000000e+000
4.936875e+002,0.000000e+000
4.956160e+002,0.000000e+000
4.975445e+002,0.000000e+000
4.994729e+002,0.000000e+000
5.014014e+002,0.000000e+000
5.033299e+002,0.000000e+000
5.052583e+002,0.000000e+000
5.071868e+002,0.000000e+000
5.091153e+002,0.000000e+000
5.110437e+002,0.000000e+000
5.129722e+002,0.000000e+000
5.149006e+002,0.000000e+000
5.168291e+002,0.000000e+000
5.187576e+002,0.000000e+000
5.206860e+002,0.000000e+000
5.226145e+002,0.000000e+000
5.245430e+002,0.000000e+000
5.264714e+002,0.000000e+000
5.283999e+002,0.000000e+000
5.303284e+002,0.000000e+000
5.322568e+002,0.000000e+000
5.341853e+002,0.000000e+000
5.361138e+002,0.000000e+000
5.380422e+002,0.000000e+000
5.399707e+002,0.000000e+000
5.418992e+002,0.000000e+000
5.438276e+002,0.000000e+000
5.457561e+002,0.000000e+000
5.476846e+002,0.000000e+000
5.496130e+002,0.000000e+000
5.515415e+002,0.000000e+000
5.534700e+002,0.000000e+000
5.553984e+002,0.000000e+000
5.573269e+002,0.000000e+000
5.592554e+002,0.000000e+000
5.611838e+002,0.000000e+000
5.631123e+002,0.000000e+000
5.650408e+002,0.000000e+000
5.669692e+002,0.000000e+000
5.688977e+002,0.000000e+000
5.708262e+002,0.000000e+000
5.727546e+002,0.000000e+000
5.746831e+002,0.000000e+000
5.766116e+002,0.000000e+000
5.785400e+002,0.000000e+000
5.804685e+002,0.000000e+000
5.823970e+002,0.000000e+000
5.843254e+002,0.000000e+000
5.862539e+002,0.000000e+000
5.881824e+002,0.000000e+000
5.901108e+002,0.000000e+000
5.920393e+002,0.000000e+000
5.939678e+002,0.000000e+000
5.958962e+002,0.000000e+000
5.978247e+002,0.000000e+000
5.997532e+002,0.000000e+000
6.016816e+002,0.000000e+000
6.036101e+002,0.000000e+000
6.055386e+002,0.000000e+000
6.074670e+002,0.000000e+000
6.093955e+002,0.000000e+000
6.113240e+002,0.000000e+000
6.132524e+002,0.000000e+000
6.151809e+002,0.000000e+000
6.171094e+002,0.000000e+000
6.190378e+002,0.000000e+000
6.209663e+002,0.000000e+000
6.228948e+002,0.000000e+000
6.248232e+002,0.000000e+000
6.267517e+002,0.000000e+000
6.286802e+002,0.000000e+000
6.306086e+002,0.000000e+000
6.325371e+002,0.000000e+000
6.344656e+002,0.000000e+000
6.363940e+002,0.000000e+000
6.383225e+002,0.000000e+000
6.402510e+002,0.000000e+000
6.421794e+002,0.000000e+000
6.441079e+002,0.000000e+000
6.460364e+002,0.000000e+000
6.479648e+002,0.000000e+000
6.498933e+002,3.801492e-001
6.518218e+002,3.801230e-001
6.537502e+002,3.778960e-001
6.556787e+002,3.741704e-001
6.576072e+002,3.706275e-001
6.595356e+002,3.687395e-001
6.614641e+002,3.665277e-001
6.633926e+002,3.651815e-001
6.653210e+002,3.620492e-001
6.672495e+002,3.589737e-001
6.691780e+002,3.559999e-001
6.711064e+002,3.528284e-001
6.730349e+002,3.512818e-001
6.749634e+002,3.477309e-001
6.768918e+002,3.432551e-001
6.788203e+002,3.409478e-001
6.807488e+002,3.391082e-001
6.826772e+002,3.370347e-001
6.846057e+002,3.354666e-001
6.865342e+002,3.335644e-001
6.884626e+002,3.320630e-001
6.903911e+002,3.290696e-001
6.923196e+002,3.272266e-001
6.942480e+002,3.251684e-001
6.961765e+002,3.223274e-001
6.981050e+002,3.204505e-001
7.000334e+002,3.195215e-001
7.019619e+002,3.183406e-001
7.038904e+002,3.163536e-001
7.058188e+002,3.127633e-001
7.077473e+002,3.088913e-001
7.096758e+002,3.056016e-001
7.116042e+002,3.039349e-001
7.135327e+002,3.021728e-001
7.154612e+002,3.002293e-001
7.173896e+002,2.957767e-001
7.193181e+002,2.907378e-001
7.212466e+002,2.891760e-001
7.231750e+002,2.879644e-001
7.251035e+002,2.851247e-001
7.270320e+002,2.837656e-001
7.289604e+002,2.804212e-001
7.308889e+002,2.772036e-001
7.328174e+002,2.745017e-001
7.347458e+002,2.724544e-001
7.366743e+002,2.690865e-001
7.386028e+002,2.660359e-001
7.405313e+002,2.632670e-001
7.424597e+002,2.614226e-001
7.443882e+002,2.590429e-001
7.463167e+002,2.552924e-001
7.482451e+002,2.517534e-001
7.501736e+002,2.495993e-001
7.521021e+002,2.475343e-001
7.540305e+002,2.449930e-001
7.559590e+002,2.423195e-001
7.578875e+002,2.396161e-001
7.598159e+002,2.365734e-001
7.617444e+002,2.341563e-001
7.636729e+002,2.328905e-001
7.656013e+002,2.309818e-001
7.675298e+002,2.280551e-001
7.694583e+002,2.258117e-001
7.713867e+002,2.232815e-001
7.733152e+002,2.205644e-001
7.752437e+002,2.180248e-001
7.771721e+002,2.145201e-001
7.791006e+002,2.119969e-001
7.810291e+002,2.101180e-001
7.829575e+002,2.077102e-001
7.848860e+002,2.048926e-001
7.868145e+002,2.014355e-001
7.887429e+002,1.981742e-001
7.906714e+002,1.953964e-001
7.925999e+002,1.934200e-001
7.945283e+002,1.901149e-001
7.964568e+002,1.869410e-001
7.983853e+002,1.847995e-001
8.003137e+002,1.830849e-001
8.022422e+002,1.808643e-001
8.041707e+002,1.775864e-001
8.060991e+002,1.753112e-001
8.080276e+002,1.726626e-001
8.099561e+002,1.705827e-001
8.118845e+002,1.686326e-001
8.138130e+002,1.662429e-001
8.157415e+002,1.634037e-001
8.176699e+002,1.613956e-001
8.195984e+002,1.595989e-001
8.215269e+002,1.578398e-001
8.234553e+002,1.571143e-001
8.253838e+002,1.549522e-001
8.273123e+002,1.516614e-001
8.292407e+002,1.492970e-001
8.311692e+002,1.485121e-001
8.330977e+002,1.472574e-001
8.350261e+002,1.454895e-001
8.369546e+002,1.432698e-001
8.388831e+002,1.402066e-001
8.408115e+002,1.380937e-001
8.427400e+002,1.366177e-001
8.446685e+002,1.348971e-001
8.465969e+002,1.327386e-001
8.485254e+002,1.300352e-001
8.504539e+002,1.278321e-001
8.523823e+002,1.259010e-001
8.543108e+002,1.242471e-001
8.562393e+002,1.221879e-001
8.581677e+002,1.200400e-001
8.600962e+002,1.181486e-001
8.620247e+002,1.169031e-001
8.639531e+002,1.152181e-001
8.658816e+002,1.127788e-001
8.678101e+002,1.106898e-001
8.697385e+002,1.086646e-001
8.716670e+002,1.065376e-001
8.735955e+002,1.044557e-001
8.755239e+002,1.035641e-001
8.774524e+002,1.024284e-001
8.793809e+002,1.007516e-001
8.813093e+002,9.870199e-002
8.832378e+002,9.677166e-002
8.851663e+002,9.548230e-002
8.870947e+002,9.425895e-002
8.890232e+002,9.309273e-002
8.909517e+002,9.201637e-002
8.928801e+002,9.049169e-002
8.948086e+002,8.887894e-002
8.967371e+002,8.726057e-002
8.986655e+002,8.557275e-002
9.005940e+002,8.392205e-002
9.025225e+002,8.254495e-002
9.044509e+002,8.114464e-002
9.063794e+002,8.014519e-002
9.083079e+002,7.889143e-002
9.102363e+002,7.761934e-002
9.121648e+002,7.639733e-002
9.140933e+002,7.553169e-002
9.160217e+002,7.475782e-002
9.179502e+002,7.357931e-002
9.198787e+002,7.222431e-002
9.218071e+002,7.124028e-002
9.237356e+002,7.028951e-002
9.256641e+002,6.930635e-002
9.275925e+002,6.858690e-002
9.295210e+002,6.765237e-002
9.314495e+002,6.671460e-002
9.333779e+002,6.549600e-002
9.353064e+002,6.461734e-002
9.372349e+002,6.396585e-002
9.391633e+002,6.307726e-002
9.410918e+002,6.219498e-002
9.430203e+002,6.143609e-002
9.449487e+002,6.061479e-002
9.468772e+002,6.019227e-002
9.488057e+002,5.956379e-002
9.507341e+002,5.878091e-002
9.526626e+002,5.813026e-002
9.545911e+002,5.769403e-002
9.565195e+002,5.711979e-002
9.584480e+002,5.646479e-002
9.603765e+002,5.584913e-002
9.623049e+002,5.543672e-002
9.642334e+002,5.529542e-002
9.661619e+002,5.517009e-002
9.680903e+002,5.483432e-002
9.700188e+002,5.500909e-002
9.719473e+002,5.533509e-002
9.738757e+002,5.507826e-002
9.758042e+002,5.468661e-002
9.777327e+002,5.445623e-002
9.796611e+002,5.442242e-002
9.815896e+002,5.482541e-002
9.835181e+002,5.526999e-002
9.854465e+002,5.517678e-002
9.873750e+002,5.543431e-002
9.893035e+002,5.599958e-002
9.912319e+002,5.592477e-002
9.931604e+002,5.602586e-002
9.950889e+002,5.658103e-002
9.970173e+002,5.724414e-002
9.989458e+002,5.814719e-002
1.000874e+003,5.984036e-002
1.002803e+003,6.175206e-002
1.004731e+003,6.426425e-002
1.006660e+003,6.795572e-002
1.008588e+003,7.253711e-002
1.010517e+003,7.793953e-002
1.012445e+003,8.319838e-002
1.014374e+003,8.648866e-002
1.016302e+003,8.745027e-002
1.018230e+003,8.532366e-002
1.020159e+003,8.063442e-002
1.022087e+003,7.536960e-002
1.024016e+003,7.042522e-002
1.025944e+003,6.584200e-002
1.027873e+003,6.222546e-002
1.029801e+003,5.910296e-002
1.031730e+003,5.673996e-002
1.033658e+003,5.488184e-002
1.035587e+003,5.367968e-002
1.037515e+003,5.325258e-002
1.039444e+003,5.261756e-002
1.041372e+003,5.201204e-002
1.043301e+003,5.190825e-002
1.045229e+003,5.218982e-002
1.047157e+003,5.273509e-002
1.049086e+003,5.290670e-002
1.051014e+003,5.250234e-002
1.052943e+003,5.180185e-002
1.054871e+003,5.095305e-002
1.056800e+003,4.979269e-002
1.058728e+003,4.892885e-002
1.060657e+003,4.854267e-002
1.062585e+003,4.803272e-002
1.064514e+003,4.819877e-002
1.066442e+003,4.785259e-002
1.068371e+003,4.703857e-002
1.070299e+003,4.669088e-002
1.072228e+003,4.625670e-002
1.074156e+003,4.601443e-002
1.076084e+003,4.658505e-002
1.078013e+003,4.674866e-002
1.079941e+003,4.636098e-002
1.081870e+003,4.684565e-002
1.083798e+003,4.807939e-002
1.085727e+003,4.791216e-002
1.087655e+003,4.698175e-002
1.089584e+003,4.649432e-002
1.091512e+003,4.593932e-002
1.093441e+003,4.523609e-002
1.095369e+003,4.497597e-002
1.097298e+003,4.518230e-002
1.099226e+003,4.545784e-002
1.101155e+003,4.432757e-002
1.103083e+003,4.323183e-002
1.105011e+003,4.269382e-002
1.106940e+003,4.184809e-002
1.108868e+003,4.125240e-002
1.110797e+003,4.137764e-002
1.112725e+003,4.142689e-002
1.114654e+003,4.099924e-002
1.116582e+003,4.117760e-002
1.118511e+003,4.139306e-002
1.120439e+003,4.103249e-002
1.122368e+003,4.085882e-002
1.124296e+003,4.068699e-002
1.126225e+003,4.011996e-002
1.128153e+003,4.046974e-002
1.130082e+003,4.063820e-002
1.132010e+003,4.019116e-002
1.133938e+003,4.016997e-002
1.135867e+003,3.996630e-002
1.137795e+003,3.979560e-002
1.139724e+003,3.963653e-002
1.141652e+003,3.915684e-002
1.143581e+003,3.868850e-002
1.145509e+003,3.830295e-002
1.147438e+003,3.821169e-002
1.149366e+003,3.799617e-002
1.151295e+003,3.749603e-002
1.153223e+003,3.739573e-002
1.155152e+003,3.730892e-002
1.157080e+003,3.721975e-002
1.159009e+003,3.716857e-002
1.160937e+003,3.695750e-002
1.162865e+003,3.688899e-002
1.164794e+003,3.689062e-002
1.166722e+003,3.639016e-002
1.168651e+003,3.605708e-002
1.170579e+003,3.592328e-002
1.172508e+003,3.617047e-002
1.174436e+003,3.655571e-002
1.176365e+003,3.637971e-002
1.178293e+003,3.661047e-002
1.180222e+003,3.697525e-002
1.182150e+003,3.727932e-002
1.184079e+003,3.722567e-002
1.186007e+003,3.718950e-002
1.187936e+003,3.767903e-002
1.189864e+003,3.814255e-002
1.191792e+003,3.862483e-002
1.193721e+003,3.900544e-002
1.195649e+003,3.912881e-002
1.197578e+003,3.885319e-002
1.199506e+003,3.871940e-002
1.201435e+003,3.891284e-002
1.203363e+003,3.936767e-002
1.205292e+003,3.940496e-002
1.207220e+003,3.920031e-002
1.209149e+003,3.930600e-002
1.211077e+003,3.956913e-002
1.213006e+003,4.022165e-002
1.214934e+003,4.069242e-002
1.216863e+003,4.054205e-002
1.218791e+003,4.030465e-002
1.220719e+003,4.075086e-002
1.222648e+003,4.124726e-002
1.224576e+003,4.121903e-002
1.226505e+003,4.127277e-002
1.228433e+003,4.150486e-002
1.230362e+003,4.162230e-002
1.232290e+003,4.180194e-002
1.234219e+003,4.197373e-002
1.236147e+003,4.193775e-002
1.238076e+003,4.195687e-002
1.240004e+003,4.215819e-002
1.241933e+003,4.230955e-002
1.243861e+003,4.246674e-002
1.245790e+003,4.239919e-002
1.247718e+003,4.201370e-002
1.249646e+003,4.203487e-002
1.251575e+003,4.193625e-002
1.253503e+003,4.145204e-002
1.255432e+003,4.110479e-002
1.257360e+003,4.092409e-002
1.259289e+003,4.065381e-002
1.261217e+003,4.016884e-002
1.263146e+003,3.992947e-002
1.265074e+003,3.990629e-002
1.267003e+003,4.011164e-002
1.268931e+003,4.080058e-002
1.270860e+003,4.157220e-002
1.272788e+003,4.216531e-002
1.274717e+003,4.268233e-002
1.276645e+003,4.253563e-002
1.278573e+003,4.230532e-002
1.280502e+003,4.228943e-002
1.282430e+003,4.193355e-002
1.284359e+003,4.159488e-002
1.286287e+003,4.150938e-002
1.288216e+003,4.135917e-002
1.290144e+003,4.100926e-002
1.292073e+003,4.045370e-002
1.294001e+003,4.025339e-002
1.295930e+003,4.018556e-002
1.297858e+003,3.974080e-002
1.299787e+003,3.936201e-002
1.301715e+003,3.919364e-002
1.303644e+003,3.894857e-002
1.305572e+003,3.877022e-002
1.307500e+003,3.855149e-002
1.309429e+003,3.826238e-002
1.311357e+003,3.797968e-002
1.313286e+003,3.772232e-002
1.315214e+003,3.783303e-002
1.317143e+003,3.776070e-002
1.319071e+003,3.754274e-002
1.321000e+003,3.736775e-002
1.322928e+003,3.722293e-002
1.324857e+003,3.711681e-002
1.326785e+003,3.709259e-002
1.328714e+003,3.699329e-002
1.330642e+003,3.710403e-002
1.332571e+003,3.710826e-002
1.334499e+003,3.705347e-002
1.336427e+003,3.705044e-002
1.338356e+003,3.695735e-002
1.340284e+003,3.698348e-002
1.342213e+003,3.710450e-002
1.344141e+003,3.716987e-002
1.346070e+003,3.721444e-002
1.347998e+003,3.719928e-002
1.349927e+003,3.739988e-002
1.351855e+003,3.757518e-002
1.353784e+003,3.767043e-002
1.355712e+003,3.803451e-002
1.357641e+003,3.838257e-002
1.359569e+003,3.863196e-002
1.361498e+003,3.889823e-002
1.363426e+003,3.921841e-002
1.365354e+003,3.962042e-002
1.367283e+003,3.982305e-002
1.369211e+003,3.982951e-002
1.371140e+003,3.984288e-002
1.373068e+003,4.007603e-002
1.374997e+003,4.018051e-002
1.376925e+003,4.024619e-002
1.378854e+003,4.007160e-002
1.380782e+003,3.967171e-002
1.382711e+003,3.951030e-002
1.384639e+003,3.941832e-002
1.386568e+003,3.915992e-002
1.388496e+003,3.928641e-002
1.390425e+003,3.918385e-002
1.392353e+003,3.895618e-002
1.394281e+003,3.903955e-002
1.396210e+003,3.940159e-002
1.398138e+003,3.947905e-002
1.400067e+003,3.956942e-002
1.401995e+003,3.965352e-002
1.403924e+003,3.937931e-002
1.405852e+003,3.917442e-002
1.407781e+003,3.938744e-002
1.409709e+003,3.936919e-002
1.411638e+003,3.950990e-002
1.413566e+003,3.958888e-002
1.415495e+003,3.952594e-002
1.417423e+003,3.948972e-002
1.419352e+003,3.945721e-002
1.421280e+003,3.957116e-002
1.423208e+003,3.937986e-002
1.425137e+003,3.920739e-002
1.427065e+003,3.906975e-002
1.428994e+003,3.882558e-002
1.430922e+003,3.883377e-002
1.432851e+003,3.900540e-002
1.434779e+003,3.904890e-002
1.436708e+003,3.912330e-002
1.438636e+003,3.912384e-002
1.440565e+003,3.935269e-002
1.442493e+003,3.975692e-002
1.444422e+003,3.978997e-002
1.446350e+003,3.980754e-002
1.448279e+003,3.989540e-002
1.450207e+003,3.977577e-002
1.452135e+003,3.957799e-002
1.454064e+003,3.919310e-002
1.455992e+003,3.874280e-002
1.457921e+003,3.851243e-002
1.459849e+003,3.845247e-002
1.461778e+003,3.828131e-002
1.463706e+003,3.806717e-002
1.465635e+003,3.791597e-002
1.467563e+003,3.776743e-002
1.469492e+003,3.753588e-002
1.471420e+003,3.741350e-002
1.473349e+003,3.708722e-002
1.475277e+003,3.670640e-002
1.477206e+003,3.659670e-002
1.479134e+003,3.638184e-002
1.481063e+003,3.592778e-002
1.482991e+003,3.528106e-002
1.484919e+003,3.488309e-002
1.486848e+003,3.498349e-002
1.488776e+003,3.506933e-002
1.490705e+003,3.503826e-002
1.492633e+003,3.494140e-002
1.494562e+003,3.510705e-002
1.496490e+003,3.521487e-002
1.498419e+003,3.523240e-002
1.500347e+003,3.554928e-002
1.502276e+003,3.602752e-002
1.504204e+003,3.642922e-002
1.506133e+003,3.671646e-002
1.508061e+003,3.704590e-002
1.509990e+003,3.749148e-002
1.511918e+003,3.786178e-002
1.513846e+003,3.810240e-002
1.515775e+003,3.838044e-002
1.517703e+003,3.833139e-002
1.519632e+003,3.762566e-002
1.521560e+003,3.689523e-002
1.523489e+003,3.660740e-002
1.525417e+003,3.625755e-002
1.527346e+003,3.601712e-002
1.529274e+003,3.573268e-002
1.531203e+003,3.536096e-002
1.533131e+003,3.545137e-002
1.535060e+003,3.549013e-002
1.536988e+003,3.551023e-002
1.538917e+003,3.590532e-002
1.540845e+003,3.617677e-002
1.542773e+003,3.652018e-002
1.544702e+003,3.699625e-002
1.546630e+003,3.700916e-002
1.548559e+003,3.700899e-002
1.550487e+003,3.711222e-002
1.552416e+003,3.766945e-002
1.554344e+003,3.852238e-002
1.556273e+003,3.935443e-002
1.558201e+003,4.003021e-002
1.560130e+003,4.071793e-002
1.562058e+003,4.179585e-002
1.563987e+003,4.276511e-002
1.565915e+003,4.323292e-002
1.567844e+003,4.418801e-002
1.569772e+003,4.542447e-002
1.571700e+003,4.634889e-002
1.573629e+003,4.722320e-002
1.575557e+003,4.834033e-002
1.577486e+003,4.960292e-002
1.579414e+003,5.069567e-002
1.581343e+003,5.189866e-002
1.583271e+003,5.350301e-002
1.585200e+003,5.488816e-002
1.587128e+003,5.600151e-002
1.589057e+003,5.759626e-002
1.590985e+003,5.941901e-002
1.592914e+003,6.126952e-002
1.594842e+003,6.321919e-002
1.596771e+003,6.552602e-002
1.598699e+003,6.789920e-002
1.600627e+003,7.014845e-002
1.602556e+003,7.286748e-002
1.604484e+003,7.583552e-002
1.606413e+003,7.843278e-002
1.608341e+003,8.099081e-002
1.610270e+003,8.377918e-002
1.612198e+003,8.647714e-002
1.614127e+003,8.918411e-002
1.616055e+003,9.185476e-002
1.617984e+003,9.434713e-002
1.619912e+003,9.696312e-002
1.621841e+003,9.938471e-002
1.623769e+003,1.016795e-001
1.625698e+003,1.041562e-001
1.627626e+003,1.063053e-001
1.629554e+003,1.082498e-001
1.631483e+003,1.099256e-001
1.633411e+003,1.111020e-001
1.635340e+003,1.119877e-001
1.637268e+003,1.122496e-001
1.639197e+003,1.121894e-001
1.641125e+003,1.119490e-001
1.643054e+003,1.114667e-001
1.644982e+003,1.105373e-001
1.646911e+003,1.092433e-001
1.648839e+003,1.080283e-001
1.650768e+003,1.063382e-001
1.652696e+003,1.042340e-001
1.654625e+003,1.022193e-001
1.656553e+003,1.002818e-001
1.658481e+003,9.808135e-002
1.660410e+003,9.568078e-002
1.662338e+003,9.337471e-002
1.664267e+003,9.087074e-002
1.666195e+003,8.836772e-002
1.668124e+003,8.603303e-002
1.670052e+003,8.349866e-002
1.671981e+003,8.086374e-002
1.673909e+003,7.850872e-002
1.675838e+003,7.614314e-002
1.677766e+003,7.392702e-002
1.679695e+003,7.152712e-002
1.681623e+003,6.911245e-002
1.683552e+003,6.671066e-002
1.685480e+003,6.426591e-002
1.687408e+003,6.225261e-002
1.689337e+003,6.055426e-002
1.691265e+003,5.876153e-002
1.693194e+003,5.687622e-002
1.695122e+003,5.495682e-002
1.697051e+003,5.319539e-002
1.698979e+003,5.169494e-002
1.700908e+003,5.014547e-002
1.702836e+003,4.852470e-002
1.704765e+003,4.693202e-002
1.706693e+003,4.538989e-002
1.708622e+003,4.394014e-002
1.710550e+003,4.261844e-002
1.712479e+003,4.144810e-002
1.714407e+003,4.029694e-002
1.716335e+003,3.921065e-002
1.718264e+003,3.821140e-002
1.720192e+003,3.696450e-002
1.722121e+003,3.586268e-002
1.724049e+003,3.479398e-002
1.725978e+003,3.314162e-002
1.727906e+003,3.159394e-002
1.729835e+003,3.044579e-002
1.731763e+003,2.902417e-002
1.733692e+003,2.742174e-002
1.735620e+003,2.590230e-002
1.737549e+003,2.462282e-002
1.739477e+003,2.352297e-002
1.741406e+003,2.264259e-002
1.743334e+003,2.152814e-002
1.745262e+003,2.045450e-002
1.747191e+003,1.970563e-002
1.749119e+003,1.903760e-002
1.751048e+003,1.823691e-002
1.752976e+003,1.754036e-002
1.754905e+003,1.686169e-002
1.756833e+003,1.637456e-002
1.758762e+003,1.603420e-002
1.760690e+003,1.567947e-002
1.762619e+003,1.535260e-002
1.764547e+003,1.473705e-002
1.766476e+003,1.411255e-002
1.768404e+003,1.378309e-002
1.770333e+003,1.332389e-002
1.772261e+003,1.282251e-002
1.774189e+003,1.260842e-002
1.776118e+003,1.237319e-002
1.778046e+003,1.210041e-002
1.779975e+003,1.182167e-002
1.781903e+003,1.140392e-002
1.783832e+003,1.083525e-002
1.785760e+003,1.052585e-002
1.787689e+003,1.046139e-002
1.789617e+003,1.039405e-002
1.791546e+003,1.014649e-002
1.793474e+003,9.802839e-003
1.795403e+003,9.499286e-003
1.797331e+003,9.193509e-003
1.799260e+003,8.993239e-003
1.801188e+003,8.810001e-003
1.803116e+003,8.826130e-003
1.805045e+003,9.076800e-003
1.806973e+003,8.895794e-003
1.808902e+003,8.610246e-003
1.810830e+003,8.507277e-003
1.812759e+003,8.320563e-003
1.814687e+003,8.308776e-003
1.816616e+003,8.373998e-003
1.818544e+003,8.251060e-003
1.820473e+003,7.940356e-003
1.822401e+003,7.612036e-003
1.824330e+003,7.663596e-003
1.826258e+003,7.839233e-003
1.828187e+003,7.649972e-003
1.830115e+003,7.478863e-003
1.832043e+003,7.561695e-003
1.833972e+003,7.555087e-003
1.835900e+003,7.326387e-003
1.837829e+003,7.177670e-003
1.839757e+003,7.150049e-003
1.841686e+003,7.204789e-003
1.843614e+003,7.185789e-003
1.845543e+003,7.090062e-003
1.847471e+003,7.096259e-003
1.849400e+003,7.063995e-003
1.851328e+003,6.876957e-003
1.853257e+003,6.760028e-003
1.855185e+003,6.803578e-003
1.857114e+003,6.935130e-003
1.859042e+003,7.113671e-003
1.860970e+003,7.049514e-003
1.862899e+003,6.836227e-003
1.864827e+003,6.779077e-003
1.866756e+003,6.797890e-003
1.868684e+003,6.783721e-003
1.870613e+003,6.784293e-003
1.872541e+003,6.800583e-003
1.874470e+003,6.679434e-003
1.876398e+003,6.681554e-003
1.878327e+003,6.631321e-003
1.880255e+003,6.509514e-003
1.882183e+003,6.592700e-003
1.884112e+003,6.647807e-003
1.886040e+003,6.706757e-003
1.887969e+003,6.677819e-003
1.889897e+003,6.684179e-003
1.891826e+003,6.670518e-003
1.893754e+003,6.503123e-003
1.895683e+003,6.619681e-003
1.897611e+003,6.786817e-003
1.899540e+003,6.722304e-003
1.901468e+003,6.624121e-003
1.903397e+003,6.482876e-003
1.905325e+003,6.675700e-003
1.907254e+003,6.754980e-003
1.909182e+003,6.729976e-003
1.911110e+003,6.832894e-003
1.913039e+003,6.899815e-003
1.914967e+003,6.966880e-003
1.916896e+003,6.791462e-003
1.918824e+003,6.751816e-003
1.920753e+003,6.732365e-003
1.922681e+003,6.816637e-003
1.924610e+003,7.058842e-003
1.926538e+003,6.989035e-003
1.928467e+003,6.860967e-003
1.930395e+003,6.844777e-003
1.932324e+003,6.900791e-003
1.934252e+003,6.979170e-003
1.936181e+003,7.057966e-003
1.938109e+003,7.095552e-003
1.940037e+003,7.331037e-003
1.941966e+003,7.499021e-003
1.943894e+003,7.254179e-003
1.945823e+003,7.065409e-003
1.947751e+003,7.150386e-003
1.949680e+003,7.202869e-003
1.951608e+003,7.295285e-003
1.953537e+003,7.515472e-003
1.955465e+003,7.482301e-003
1.957394e+003,7.521642e-003
1.959322e+003,7.627446e-003
1.961251e+003,7.762014e-003
1.963179e+003,7.734557e-003
1.965108e+003,7.674591e-003
1.967036e+003,7.899020e-003
1.968964e+003,8.215704e-003
1.970893e+003,8.274090e-003
1.972821e+003,8.313403e-003
1.974750e+003,8.335863e-003
1.976678e+003,8.389301e-003
1.978607e+003,8.285168e-003
1.980535e+003,8.138149e-003
1.982464e+003,8.367479e-003
1.984392e+003,8.605042e-003
1.986321e+003,8.427474e-003
1.988249e+003,8.413555e-003
1.990178e+003,8.694985e-003
1.992106e+003,9.030992e-003
1.994035e+003,9.051866e-003
1.995963e+003,9.175133e-003
1.997891e+003,9.148128e-003
1.999820e+003,9.108368e-003
2.001748e+003,9.327649e-003
2.003677e+003,9.356731e-003
2.005605e+003,9.291665e-003
2.007534e+003,9.411410e-003
2.009462e+003,9.578575e-003
2.011391e+003,9.821275e-003
2.013319e+003,9.958186e-003
2.015248e+003,9.870285e-003
2.017176e+003,9.825986e-003
2.019105e+003,9.973578e-003
2.021033e+003,1.015110e-002
2.022962e+003,1.028679e-002
2.024890e+003,1.037152e-002
2.026818e+003,1.054062e-002
2.028747e+003,1.051655e-002
2.030675e+003,1.040522e-002
2.032604e+003,1.046746e-002
2.034532e+003,1.048169e-002
2.036461e+003,1.062169e-002
2.038389e+003,1.090326e-002
2.040318e+003,1.096106e-002
2.042246e+003,1.099311e-002
2.044175e+003,1.100463e-002
2.046103e+003,1.090245e-002
2.048032e+003,1.099810e-002
2.049960e+003,1.143161e-002
2.051889e+003,1.171487e-002
2.053817e+003,1.180103e-002
2.055746e+003,1.163356e-002
2.057674e+003,1.152966e-002
2.059603e+003,1.158479e-002
2.061531e+003,1.168104e-002
2.063459e+003,1.167147e-002
2.065388e+003,1.174003e-002
2.067316e+003,1.185619e-002
2.069245e+003,1.186317e-002
2.071173e+003,1.191303e-002
2.073102e+003,1.204201e-002
2.075030e+003,1.218072e-002
2.076959e+003,1.231364e-002
2.078887e+003,1.237135e-002
2.080816e+003,1.232553e-002
2.082744e+003,1.235887e-002
2.084673e+003,1.242774e-002
2.086601e+003,1.250573e-002
2.088530e+003,1.250443e-002
2.090458e+003,1.245993e-002
2.092386e+003,1.236924e-002
2.094315e+003,1.248683e-002
2.096243e+003,1.248049e-002
2.098172e+003,1.245202e-002
2.100100e+003,1.256374e-002
2.102029e+003,1.255098e-002
2.103957e+003,1.261476e-002
2.105886e+003,1.286664e-002
2.107814e+003,1.292508e-002
2.109743e+003,1.285326e-002
2.111671e+003,1.290623e-002
2.113600e+003,1.296727e-002
2.115528e+003,1.281661e-002
2.117457e+003,1.285510e-002
2.119385e+003,1.288374e-002
2.121313e+003,1.266562e-002
2.123242e+003,1.274635e-002
2.125170e+003,1.273690e-002
2.127099e+003,1.261773e-002
2.129027e+003,1.264536e-002
2.130956e+003,1.260395e-002
2.132884e+003,1.261545e-002
2.134813e+003,1.284121e-002
2.136741e+003,1.279958e-002
2.138670e+003,1.292105e-002
2.140598e+003,1.290272e-002
2.142527e+003,1.274004e-002
2.144455e+003,1.269322e-002
2.146384e+003,1.256537e-002
2.148312e+003,1.242989e-002
2.150240e+003,1.241253e-002
2.152169e+003,1.245901e-002
2.154097e+003,1.260825e-002
2.156026e+003,1.260429e-002
2.157954e+003,1.232615e-002
2.159883e+003,1.218607e-002
2.161811e+003,1.216126e-002
2.163740e+003,1.220069e-002
2.165668e+003,1.225712e-002
2.167597e+003,1.217843e-002
2.169525e+003,1.215404e-002
2.171454e+003,1.215830e-002
2.173382e+003,1.207281e-002
2.175311e+003,1.186389e-002
2.177239e+003,1.155627e-002
2.179167e+003,1.146614e-002
2.181096e+003,1.150666e-002
2.183024e+003,1.145498e-002
2.184953e+003,1.143301e-002
2.186881e+003,1.137960e-002
2.188810e+003,1.119984e-002
2.190738e+003,1.098217e-002
2.192667e+003,1.093857e-002
2.194595e+003,1.107991e-002
2.196524e+003,1.115395e-002
2.198452e+003,1.082849e-002
2.200381e+003,1.056740e-002
2.202309e+003,1.074333e-002
2.204238e+003,1.074415e-002
2.206166e+003,1.056268e-002
2.208094e+003,1.039650e-002
2.210023e+003,1.034732e-002
2.211951e+003,1.046824e-002
2.213880e+003,1.030647e-002
2.215808e+003,1.007720e-002
2.217737e+003,1.000463e-002
2.219665e+003,9.966289e-003
2.221594e+003,9.850253e-003
2.223522e+003,9.792027e-003
2.225451e+003,9.795518e-003
2.227379e+003,9.821139e-003
2.229308e+003,9.753260e-003
2.231236e+003,9.607368e-003
2.233165e+003,9.331475e-003
2.235093e+003,9.143289e-003
2.237021e+003,9.196251e-003
2.238950e+003,9.260151e-003
2.240878e+003,9.010796e-003
2.242807e+003,8.833739e-003
2.244735e+003,8.818117e-003
2.246664e+003,8.635730e-003
2.248592e+003,8.436257e-003
2.250521e+003,8.353664e-003
2.252449e+003,8.302966e-003
2.254378e+003,8.369472e-003
2.256306e+003,8.374944e-003
2.258235e+003,8.246467e-003
2.260163e+003,8.167454e-003
2.262092e+003,8.091967e-003
2.264020e+003,8.074380e-003
2.265948e+003,7.865211e-003
2.267877e+003,7.813255e-003
2.269805e+003,7.645318e-003
2.271734e+003,7.266409e-003
2.273662e+003,7.324972e-003
2.275591e+003,7.444952e-003
2.277519e+003,7.369017e-003
2.279448e+003,7.364299e-003
2.281376e+003,7.404741e-003
2.283305e+003,7.240028e-003
2.285233e+003,7.102860e-003
2.287162e+003,7.036515e-003
2.289090e+003,6.960483e-003
2.291019e+003,6.823908e-003
2.292947e+003,6.663418e-003
2.294875e+003,6.537667e-003
2.296804e+003,6.544562e-003
2.298732e+003,6.534101e-003
2.300661e+003,6.320798e-003
2.302589e+003,6.367230e-003
2.304518e+003,6.409766e-003
2.306446e+003,6.267447e-003
2.308375e+003,6.219883e-003
2.310303e+003,6.292727e-003
2.312232e+003,6.160226e-003
2.314160e+003,6.023835e-003
2.316089e+003,5.893533e-003
2.318017e+003,6.018762e-003
2.319946e+003,5.837379e-003
2.321874e+003,5.684808e-003
2.323802e+003,5.739095e-003
2.325731e+003,5.621901e-003
2.327659e+003,5.435383e-003
2.329588e+003,5.350540e-003
2.331516e+003,5.256356e-003
2.333445e+003,5.216951e-003
2.335373e+003,5.327495e-003
2.337302e+003,5.367883e-003
2.339230e+003,5.263298e-003
2.341159e+003,5.066441e-003
2.343087e+003,5.045825e-003
2.345016e+003,5.034227e-003
2.346944e+003,5.140567e-003
2.348873e+003,5.128295e-003
2.350801e+003,5.066408e-003
2.352729e+003,5.192640e-003
2.354658e+003,5.224061e-003
2.356586e+003,4.976911e-003
2.358515e+003,4.971616e-003
2.360443e+003,4.930058e-003
2.362372e+003,4.840121e-003
2.364300e+003,4.817103e-003
2.366229e+003,4.763266e-003
2.368157e+003,4.531679e-003
2.370086e+003,4.478346e-003
2.372014e+003,4.520229e-003
2.373943e+003,4.350849e-003
2.375871e+003,4.134334e-003
2.377800e+003,4.313702e-003
2.379728e+003,4.433455e-003
2.381656e+003,4.199066e-003
2.383585e+003,3.956378e-003
2.385513e+003,3.878844e-003
2.387442e+003,3.806772e-003
2.389370e+003,3.717033e-003
2.391299e+003,3.670282e-003
2.393227e+003,3.613079e-003
2.395156e+003,3.569748e-003
2.397084e+003,3.635131e-003
2.399013e+003,3.794404e-003
2.400941e+003,3.610173e-003
2.402870e+003,3.421477e-003
2.404798e+003,3.339197e-003
2.406727e+003,3.292888e-003
2.408655e+003,3.385311e-003
2.410583e+003,3.563334e-003
2.412512e+003,3.697550e-003
2.414440e+003,3.770139e-003
2.416369e+003,3.544459e-003
2.418297e+003,3.557654e-003
2.420226e+003,3.407050e-003
2.422154e+003,3.400171e-003
2.424083e+003,3.486304e-003
2.426011e+003,3.375226e-003
2.427940e+003,3.362103e-003
2.429868e+003,3.311852e-003
2.431797e+003,3.130060e-003
2.433725e+003,3.008764e-003
2.435654e+003,2.845743e-003
2.437582e+003,2.805522e-003
2.439510e+003,2.905647e-003
2.441439e+003,2.806856e-003
2.443367e+003,2.705854e-003
2.445296e+003,2.675215e-003
2.447224e+003,2.849912e-003
2.449153e+003,3.151186e-003
2.451081e+003,3.151821e-003
2.453010e+003,3.083606e-003
2.454938e+003,2.806889e-003
2.456867e+003,2.580876e-003
2.458795e+003,2.684349e-003
2.460724e+003,2.798185e-003
2.462652e+003,2.659612e-003
2.464581e+003,2.484859e-003
2.466509e+003,2.251053e-003
2.468438e+003,2.484959e-003
2.470366e+003,2.519484e-003
2.472294e+003,2.196667e-003
2.474223e+003,2.322667e-003
2.476151e+003,2.517018e-003
2.478080e+003,2.537481e-003
2.480008e+003,2.235899e-003
2.481937e+003,2.088981e-003
2.483865e+003,2.152111e-003
2.485794e+003,2.338590e-003
2.487722e+003,2.638177e-003
2.489651e+003,2.533448e-003
2.491579e+003,2.417382e-003
2.493508e+003,2.505920e-003
2.495436e+003,2.448070e-003
2.497365e+003,2.227639e-003
2.499293e+003,2.303413e-003
2.501221e+003,2.317270e-003
2.503150e+003,2.113953e-003
2.505078e+003,2.173523e-003
2.507007e+003,2.484592e-003
2.508935e+003,2.293653e-003
2.510864e+003,2.176520e-003
2.512792e+003,2.375502e-003
2.514721e+003,2.502821e-003
2.516649e+003,2.346952e-003
2.518578e+003,2.202062e-003
2.520506e+003,2.145585e-003
2.522435e+003,2.261044e-003
2.524363e+003,2.296551e-003
2.526292e+003,2.279164e-003
2.528220e+003,2.138525e-003
2.530148e+003,2.156273e-003
2.532077e+003,1.944277e-003
2.534005e+003,1.931098e-003
2.535934e+003,2.025628e-003
2.537862e+003,1.892592e-003
2.539791e+003,1.850197e-003
2.541719e+003,1.740302e-003
2.543648e+003,1.656976e-003
2.545576e+003,1.624182e-003
2.547505e+003,1.708766e-003
2.549433e+003,1.892226e-003
2.551362e+003,2.072068e-003
2.553290e+003,1.971370e-003
2.555219e+003,1.951467e-003
2.557147e+003,2.051661e-003
2.559075e+003,2.114052e-003
2.561004e+003,1.952998e-003
2.562932e+003,1.931630e-003
2.564861e+003,2.217415e-003
2.566789e+003,2.096839e-003
2.568718e+003,1.725133e-003
2.570646e+003,1.665890e-003
2.572575e+003,1.495393e-003
2.574503e+003,1.441101e-003
2.576432e+003,1.445689e-003
2.578360e+003,1.321904e-003
2.580289e+003,1.398019e-003
2.582217e+003,1.522657e-003
2.584146e+003,1.452272e-003
2.586074e+003,1.491436e-003
2.588002e+003,1.566084e-003
2.589931e+003,1.646466e-003
2.591859e+003,1.550189e-003
2.593788e+003,1.396922e-003
2.595716e+003,1.357766e-003
2.597645e+003,1.599539e-003
2.599573e+003,1.897984e-003
2.601502e+003,1.907402e-003
2.603430e+003,1.797625e-003
2.605359e+003,1.541876e-003
2.607287e+003,1.440935e-003
2.609216e+003,1.446022e-003
2.611144e+003,1.557904e-003
2.613073e+003,1.802150e-003
2.615001e+003,1.963349e-003
2.616929e+003,1.797758e-003
2.618858e+003,1.608585e-003
2.620786e+003,1.418396e-003
2.622715e+003,1.488211e-003
2.624643e+003,1.432259e-003
2.626572e+003,1.274248e-003
2.628500e+003,1.509989e-003
2.630429e+003,1.795529e-003
2.632357e+003,1.689240e-003
2.634286e+003,1.456128e-003
2.636214e+003,1.550588e-003
2.638143e+003,1.559932e-003
2.640071e+003,1.497820e-003
2.642000e+003,1.508493e-003
2.643928e+003,1.384490e-003
2.645856e+003,1.619360e-003
2.647785e+003,1.686280e-003
2.649713e+003,1.771641e-003
2.651642e+003,1.700517e-003
2.653570e+003,1.679062e-003
2.655499e+003,1.666522e-003
2.657427e+003,1.424646e-003
2.659356e+003,1.363284e-003
2.661284e+003,1.551652e-003
2.663213e+003,1.796195e-003
2.665141e+003,1.705706e-003
2.667070e+003,1.771142e-003
2.668998e+003,1.931430e-003
2.670927e+003,1.915921e-003
2.672855e+003,2.063579e-003
2.674783e+003,2.212652e-003
2.676712e+003,2.092411e-003
2.678640e+003,1.814960e-003
2.680569e+003,1.967010e-003
2.682497e+003,2.000029e-003
2.684426e+003,1.941116e-003
2.686354e+003,2.156140e-003
2.688283e+003,2.185944e-003
2.690211e+003,2.002593e-003
2.692140e+003,2.016807e-003
2.694068e+003,2.123875e-003
2.695997e+003,2.102266e-003
2.697925e+003,2.359511e-003
2.699854e+003,2.512485e-003
2.701782e+003,2.428344e-003
2.703710e+003,2.425146e-003
2.705639e+003,2.711389e-003
2.707567e+003,2.814393e-003
2.709496e+003,2.483426e-003
2.711424e+003,2.539180e-003
2.713353e+003,2.560078e-003
2.715281e+003,2.439040e-003
2.717210e+003,2.528782e-003
2.719138e+003,2.798852e-003
2.721067e+003,2.710689e-003
2.722995e+003,2.651911e-003
2.724924e+003,2.691184e-003
2.726852e+003,2.770407e-003
2.728781e+003,2.956051e-003
2.730709e+003,3.066354e-003
2.732637e+003,2.739830e-003
2.734566e+003,2.764038e-003
2.736494e+003,2.975901e-003
2.738423e+003,2.960488e-003
2.740351e+003,3.041963e-003
2.742280e+003,3.246049e-003
2.744208e+003,3.450566e-003
2.746137e+003,3.673992e-003
2.748065e+003,3.807574e-003
2.749994e+003,3.936884e-003
2.751922e+003,3.865505e-003
2.753851e+003,3.866809e-003
2.755779e+003,3.991321e-003
2.757708e+003,4.063189e-003
2.759636e+003,4.149387e-003
2.761564e+003,4.252633e-003
2.763493e+003,4.221750e-003
2.765421e+003,4.241959e-003
2.767350e+003,4.499437e-003
2.769278e+003,4.530206e-003
2.771207e+003,4.693559e-003
2.773135e+003,5.172990e-003
2.775064e+003,5.489135e-003
2.776992e+003,5.226609e-003
2.778921e+003,4.799246e-003
2.780849e+003,5.111096e-003
2.782778e+003,5.730970e-003
2.784706e+003,6.046951e-003
2.786635e+003,6.131493e-003
2.788563e+003,5.980128e-003
2.790491e+003,5.892391e-003
2.792420e+003,6.094596e-003
2.794348e+003,6.067547e-003
2.796277e+003,6.218371e-003
2.798205e+003,6.675296e-003
2.800134e+003,7.101951e-003
2.802062e+003,7.283661e-003
2.803991e+003,7.105588e-003
2.805919e+003,6.929407e-003
2.807848e+003,7.047830e-003
2.809776e+003,7.431435e-003
2.811705e+003,7.774225e-003
2.813633e+003,8.028677e-003
2.815562e+003,8.264263e-003
2.817490e+003,8.263216e-003
2.819418e+003,8.470076e-003
2.821347e+003,8.833063e-003
2.823275e+003,8.811793e-003
2.825204e+003,9.044389e-003
2.827132e+003,9.303648e-003
2.829061e+003,9.401084e-003
2.830989e+003,9.721441e-003
2.832918e+003,1.026834e-002
2.834846e+003,1.067364e-002
2.836775e+003,1.114320e-002
2.838703e+003,1.146567e-002
2.840632e+003,1.149513e-002
2.842560e+003,1.168893e-002
2.844489e+003,1.226132e-002
2.846417e+003,1.234841e-002
2.848345e+003,1.225361e-002
2.850274e+003,1.197617e-002
2.852202e+003,1.157679e-002
2.854131e+003,1.133273e-002
2.856059e+003,1.142593e-002
2.857988e+003,1.176021e-002
2.859916e+003,1.209390e-002
2.861845e+003,1.184751e-002
2.863773e+003,1.170221e-002
2.865702e+003,1.221510e-002
2.867630e+003,1.235799e-002
2.869558e+003,1.235332e-002
2.871487e+003,1.276638e-002
2.873415e+003,1.291774e-002
2.875344e+003,1.318362e-002
2.877272e+003,1.383983e-002
2.879201e+003,1.396871e-002
2.881129e+003,1.418518e-002
2.883058e+003,1.476540e-002
2.884986e+003,1.497846e-002
2.886915e+003,1.516559e-002
2.888843e+003,1.523944e-002
2.890771e+003,1.544508e-002
2.892700e+003,1.586134e-002
2.894628e+003,1.631418e-002
2.896557e+003,1.683297e-002
2.898485e+003,1.726703e-002
2.900414e+003,1.726986e-002
2.902342e+003,1.744494e-002
2.904271e+003,1.772490e-002
2.906199e+003,1.807395e-002
2.908128e+003,1.858125e-002
2.910056e+003,1.900257e-002
2.911985e+003,1.915535e-002
2.913913e+003,1.940277e-002
2.915842e+003,1.967592e-002
2.917770e+003,2.014484e-002
2.919698e+003,2.053074e-002
2.921627e+003,2.120035e-002
2.923555e+003,2.148086e-002
2.925484e+003,2.132652e-002
2.927412e+003,2.192821e-002
2.929341e+003,2.299977e-002
2.931269e+003,2.368485e-002
2.933198e+003,2.385729e-002
2.935126e+003,2.423162e-002
2.937055e+003,2.471313e-002
2.938983e+003,2.464916e-002
2.940912e+003,2.481689e-002
2.942840e+003,2.569069e-002
2.944769e+003,2.649060e-002
2.946697e+003,2.724796e-002
2.948625e+003,2.769299e-002
2.950554e+003,2.813420e-002
2.952482e+003,2.863344e-002
2.954411e+003,2.885151e-002
2.956339e+003,2.912418e-002
2.958268e+003,2.926547e-002
2.960196e+003,2.929755e-002
2.962125e+003,2.955032e-002
2.964053e+003,2.956047e-002
2.965982e+003,2.960853e-002
2.967910e+003,3.016895e-002
2.969839e+003,3.099559e-002
2.971767e+003,3.212247e-002
2.973696e+003,3.252378e-002
2.975624e+003,3.315453e-002
2.977552e+003,3.348171e-002
2.979481e+003,3.366463e-002
2.981409e+003,3.428478e-002
2.983338e+003,3.512224e-002
2.985266e+003,3.574714e-002
2.987195e+003,3.602860e-002
2.989123e+003,3.642594e-002
2.991052e+003,3.694816e-002
2.992980e+003,3.743170e-002
2.994909e+003,3.807719e-002
2.996837e+003,3.846775e-002
2.998766e+003,3.881098e-002
3.000694e+003,3.946237e-002
3.002623e+003,3.997357e-002
3.004551e+003,4.031646e-002
3.006479e+003,4.100940e-002
3.008408e+003,4.190381e-002
3.010336e+003,4.230360e-002
3.012265e+003,4.284610e-002
3.014193e+003,4.361013e-002
3.016122e+003,4.444685e-002
3.018050e+003,4.526293e-002
3.019979e+003,4.607595e-002
3.021907e+003,4.707838e-002
3.023836e+003,4.765487e-002
3.025764e+003,4.848113e-002
3.027693e+003,4.978217e-002
3.029621e+003,5.026639e-002
3.031550e+003,5.107788e-002
3.033478e+003,5.236970e-002
3.035406e+003,5.281872e-002
3.037335e+003,5.344706e-002
3.039263e+003,5.445747e-002
3.041192e+003,5.526272e-002
3.043120e+003,5.627088e-002
3.045049e+003,5.739167e-002
3.046977e+003,5.829370e-002
3.048906e+003,5.969838e-002
3.050834e+003,6.117292e-002
3.052763e+003,6.216856e-002
3.054691e+003,6.275336e-002
3.056620e+003,6.413173e-002
3.058548e+003,6.547593e-002
3.060477e+003,6.623895e-002
3.062405e+003,6.696248e-002
3.064333e+003,6.823336e-002
3.066262e+003,6.990707e-002
3.068190e+003,7.139975e-002
3.070119e+003,7.256515e-002
3.072047e+003,7.365582e-002
3.073976e+003,7.525393e-002
3.075904e+003,7.661977e-002
3.077833e+003,7.732879e-002
3.079761e+003,7.873137e-002
3.081690e+003,8.028764e-002
3.083618e+003,8.173441e-002
3.085547e+003,8.328925e-002
3.087475e+003,8.436313e-002
3.089404e+003,8.549368e-002
3.091332e+003,8.690385e-002
3.093260e+003,8.852734e-002
3.095189e+003,9.017113e-002
3.097117e+003,9.172918e-002
3.099046e+003,9.345425e-002
3.100974e+003,9.533016e-002
3.102903e+003,9.647799e-002
3.104831e+003,9.768509e-002
3.106760e+003,9.955323e-002
3.108688e+003,1.011927e-001
3.110617e+003,1.023831e-001
3.112545e+003,1.036226e-001
3.114474e+003,1.056276e-001
3.116402e+003,1.077465e-001
3.118331e+003,1.095275e-001
3.120259e+003,1.111557e-001
3.122188e+003,1.124590e-001
3.124116e+003,1.141900e-001
3.126044e+003,1.166066e-001
3.127973e+003,1.188942e-001
3.129901e+003,1.205799e-001
3.131830e+003,1.226609e-001
3.133758e+003,1.246811e-001
3.135687e+003,1.259068e-001
3.137615e+003,1.273720e-001
3.139544e+003,1.286165e-001
3.141472e+003,1.303129e-001
3.143401e+003,1.326534e-001
3.145329e+003,1.344410e-001
3.147258e+003,1.363069e-001
3.149186e+003,1.385627e-001
3.151115e+003,1.404999e-001
3.153043e+003,1.425339e-001
3.154971e+003,1.443669e-001
3.156900e+003,1.455183e-001
3.158828e+003,1.470352e-001
3.160757e+003,1.491558e-001
3.162685e+003,1.511083e-001
3.164614e+003,1.530744e-001
3.166542e+003,1.554307e-001
3.168471e+003,1.572393e-001
3.170399e+003,1.596349e-001
3.172328e+003,1.609756e-001
3.174256e+003,1.624121e-001
3.176185e+003,1.644486e-001
3.178113e+003,1.664987e-001
3.180042e+003,1.687121e-001
3.181970e+003,1.702997e-001
3.183898e+003,1.722103e-001
3.185827e+003,1.740559e-001
3.187755e+003,1.753537e-001
3.189684e+003,1.769129e-001
3.191612e+003,1.784966e-001
3.193541e+003,1.798238e-001
3.195469e+003,1.812687e-001
3.197398e+003,1.832541e-001
3.199326e+003,1.857353e-001
3.201255e+003,1.866584e-001
3.203183e+003,1.868652e-001
3.205112e+003,1.877029e-001
3.207040e+003,1.901721e-001
3.208969e+003,1.917394e-001
3.210897e+003,1.923815e-001
3.212825e+003,1.934103e-001
3.214754e+003,1.944006e-001
3.216682e+003,1.959403e-001
3.218611e+003,1.975436e-001
3.220539e+003,1.985508e-001
3.222468e+003,1.999412e-001
3.224396e+003,2.010687e-001
3.226325e+003,2.013310e-001
3.228253e+003,2.011846e-001
3.230182e+003,2.027564e-001
3.232110e+003,2.043723e-001
3.234039e+003,2.048175e-001
3.235967e+003,2.053653e-001
3.237896e+003,2.064642e-001
3.239824e+003,2.072454e-001
3.241752e+003,2.070764e-001
3.243681e+003,2.077449e-001
3.245609e+003,2.086234e-001
3.247538e+003,2.085991e-001
3.249466e+003,2.087062e-001
3.251395e+003,2.094681e-001
3.253323e+003,2.094060e-001
3.255252e+003,2.098462e-001
3.257180e+003,2.107383e-001
3.259109e+003,2.120258e-001
3.261037e+003,2.117167e-001
3.262966e+003,2.116593e-001
3.264894e+003,2.122889e-001
3.266823e+003,2.131398e-001
3.268751e+003,2.132055e-001
3.270679e+003,2.129932e-001
3.272608e+003,2.129276e-001
3.274536e+003,2.124544e-001
3.276465e+003,2.130246e-001
3.278393e+003,2.138660e-001
3.280322e+003,2.141504e-001
3.282250e+003,2.143517e-001
3.284179e+003,2.140527e-001
3.286107e+003,2.136241e-001
3.288036e+003,2.139120e-001
3.289964e+003,2.146194e-001
3.291893e+003,2.153390e-001
3.293821e+003,2.155053e-001
3.295750e+003,2.153789e-001
3.297678e+003,2.158342e-001
3.299606e+003,2.153624e-001
3.301535e+003,2.143572e-001
3.303463e+003,2.146180e-001
3.305392e+003,2.154849e-001
3.307320e+003,2.153261e-001
3.309249e+003,2.147653e-001
3.311177e+003,2.147454e-001
3.313106e+003,2.151174e-001
3.315034e+003,2.157917e-001
3.316963e+003,2.165368e-001
3.318891e+003,2.169638e-001
3.320820e+003,2.168559e-001
3.322748e+003,2.168179e-001
3.324677e+003,2.168146e-001
3.326605e+003,2.165329e-001
3.328533e+003,2.163315e-001
3.330462e+003,2.163664e-001
3.332390e+003,2.163958e-001
3.334319e+003,2.157628e-001
3.336247e+003,2.155847e-001
3.338176e+003,2.165633e-001
3.340104e+003,2.174722e-001
3.342033e+003,2.174655e-001
3.343961e+003,2.176182e-001
3.345890e+003,2.174704e-001
3.347818e+003,2.167091e-001
3.349747e+003,2.160232e-001
3.351675e+003,2.163517e-001
3.353604e+003,2.158679e-001
3.355532e+003,2.148599e-001
3.357460e+003,2.145352e-001
3.359389e+003,2.140567e-001
3.361317e+003,2.144190e-001
3.363246e+003,2.147491e-001
3.365174e+003,2.147803e-001
3.367103e+003,2.134897e-001
3.369031e+003,2.126992e-001
3.370960e+003,2.130490e-001
3.372888e+003,2.129762e-001
3.374817e+003,2.123509e-001
3.376745e+003,2.112609e-001
3.378674e+003,2.102361e-001
3.380602e+003,2.094800e-001
3.382531e+003,2.091936e-001
3.384459e+003,2.086788e-001
3.386387e+003,2.074594e-001
3.388316e+003,2.071270e-001
3.390244e+003,2.065888e-001
3.392173e+003,2.054088e-001
3.394101e+003,2.050248e-001
3.396030e+003,2.039345e-001
3.397958e+003,2.027888e-001
3.399887e+003,2.012905e-001
3.401815e+003,2.000217e-001
3.403744e+003,1.991732e-001
3.405672e+003,1.979332e-001
3.407601e+003,1.966275e-001
3.409529e+003,1.957311e-001
3.411458e+003,1.941946e-001
3.413386e+003,1.930173e-001
3.415314e+003,1.924167e-001
3.417243e+003,1.908778e-001
3.419171e+003,1.895096e-001
3.421100e+003,1.883101e-001
3.423028e+003,1.869127e-001
3.424957e+003,1.853655e-001
3.426885e+003,1.828684e-001
3.428814e+003,1.815724e-001
3.430742e+003,1.824617e-001
3.432671e+003,1.815848e-001
3.434599e+003,1.795928e-001
3.436528e+003,1.779316e-001
3.438456e+003,1.754120e-001
3.440385e+003,1.725069e-001
3.442313e+003,1.711645e-001
3.444241e+003,1.701491e-001
3.446170e+003,1.688648e-001
3.448098e+003,1.678440e-001
3.450027e+003,1.666713e-001
3.451955e+003,1.645512e-001
3.453884e+003,1.640477e-001
3.455812e+003,1.633559e-001
3.457741e+003,1.613533e-001
3.459669e+003,1.594106e-001
3.461598e+003,1.571604e-001
3.463526e+003,1.552878e-001
3.465455e+003,1.532234e-001
3.467383e+003,1.511207e-001
3.469312e+003,1.507063e-001
3.471240e+003,1.507688e-001
3.473168e+003,1.494908e-001
3.475097e+003,1.472022e-001
3.477025e+003,1.446151e-001
3.478954e+003,1.433325e-001
3.480882e+003,1.425772e-001
3.482811e+003,1.415783e-001
3.484739e+003,1.397410e-001
3.486668e+003,1.371903e-001
3.488596e+003,1.354227e-001
3.490525e+003,1.344485e-001
3.492453e+003,1.334953e-001
3.494382e+003,1.320446e-001
3.496310e+003,1.299931e-001
3.498239e+003,1.279102e-001
3.500167e+003,1.267692e-001
3.502095e+003,1.253953e-001
3.504024e+003,1.242057e-001
3.505952e+003,1.234032e-001
3.507881e+003,1.216657e-001
3.509809e+003,1.203693e-001
3.511738e+003,1.188938e-001
3.513666e+003,1.176743e-001
3.515595e+003,1.161537e-001
3.517523e+003,1.143334e-001
3.519452e+003,1.126779e-001
3.521380e+003,1.120079e-001
3.523309e+003,1.099819e-001
3.525237e+003,1.079155e-001
3.527166e+003,1.066844e-001
3.529094e+003,1.050479e-001
3.531022e+003,1.036380e-001
3.532951e+003,1.023990e-001
3.534879e+003,1.006618e-001
3.536808e+003,9.897094e-002
3.538736e+003,9.834343e-002
3.540665e+003,9.693946e-002
3.542593e+003,9.479208e-002
3.544522e+003,9.283892e-002
3.546450e+003,9.214531e-002
3.548379e+003,9.191568e-002
3.550307e+003,9.034280e-002
3.552236e+003,8.813601e-002
3.554164e+003,8.601288e-002
3.556093e+003,8.452281e-002
3.558021e+003,8.417079e-002
3.559949e+003,8.278211e-002
3.561878e+003,8.055682e-002
3.563806e+003,7.948618e-002
3.565735e+003,7.830543e-002
3.567663e+003,7.722227e-002
3.569592e+003,7.652124e-002
3.571520e+003,7.563709e-002
3.573449e+003,7.419057e-002
3.575377e+003,7.197201e-002
3.577306e+003,7.073551e-002
3.579234e+003,6.969699e-002
3.581163e+003,6.885763e-002
3.583091e+003,6.832556e-002
3.585020e+003,6.646879e-002
3.586948e+003,6.483903e-002
3.588876e+003,6.429107e-002
3.590805e+003,6.315224e-002
3.592733e+003,6.124556e-002
3.594662e+003,6.005916e-002
3.596590e+003,5.911754e-002
3.598519e+003,5.804129e-002
3.600447e+003,5.668023e-002
3.602376e+003,5.565139e-002
3.604304e+003,5.483797e-002
3.606233e+003,5.354488e-002
3.608161e+003,5.287204e-002
3.610090e+003,5.236771e-002
3.612018e+003,5.096072e-002
3.613947e+003,4.940607e-002
3.615875e+003,4.833493e-002
3.617803e+003,4.724994e-002
3.619732e+003,4.663979e-002
3.621660e+003,4.571891e-002
3.623589e+003,4.391301e-002
3.625517e+003,4.310176e-002
3.627446e+003,4.284212e-002
3.629374e+003,4.145043e-002
3.631303e+003,4.000318e-002
3.633231e+003,3.858810e-002
3.635160e+003,3.676356e-002
3.637088e+003,3.569670e-002
3.639017e+003,3.514409e-002
3.640945e+003,3.410425e-002
3.642874e+003,3.230539e-002
3.644802e+003,3.100399e-002
3.646730e+003,2.973724e-002
3.648659e+003,2.879794e-002
3.650587e+003,2.805417e-002
3.652516e+003,2.689421e-002
3.654444e+003,2.563101e-002
3.656373e+003,2.411693e-002
3.658301e+003,2.299362e-002
3.660230e+003,2.203416e-002
3.662158e+003,2.057188e-002
3.664087e+003,1.901506e-002
3.666015e+003,1.803094e-002
3.667944e+003,1.711701e-002
3.669872e+003,1.605473e-002
3.671801e+003,1.502573e-002
3.673729e+003,1.412928e-002
3.675657e+003,1.348805e-002
3.677586e+003,1.246849e-002
3.679514e+003,1.172586e-002
3.681443e+003,1.122480e-002
3.683371e+003,1.038401e-002
3.685300e+003,9.645819e-003
3.687228e+003,8.864782e-003
3.689157e+003,8.894982e-003
3.691085e+003,8.158170e-003
3.693014e+003,7.337979e-003
3.694942e+003,6.958227e-003
3.696871e+003,6.942167e-003
3.698799e+003,6.716751e-003
3.700728e+003,6.145708e-003
3.702656e+003,5.403846e-003
3.704584e+003,4.906533e-003
3.706513e+003,4.701665e-003
3.708441e+003,4.484272e-003
3.710370e+003,4.493311e-003
3.712298e+003,4.059310e-003
3.714227e+003,3.198949e-003
3.716155e+003,2.723125e-003
3.718084e+003,2.579743e-003
3.720012e+003,2.930298e-003
3.721941e+003,3.449497e-003
3.723869e+003,3.182427e-003
3.725798e+003,2.381033e-003
3.727726e+003,1.939917e-003
3.729655e+003,1.839583e-003
3.731583e+003,1.555476e-003
3.733511e+003,1.714821e-003
3.735440e+003,1.693997e-003
3.737368e+003,1.724601e-003
3.739297e+003,1.424480e-003
3.741225e+003,1.045211e-003
3.743154e+003,7.099798e-004
3.745082e+003,4.789846e-004
3.747011e+003,4.678063e-004
3.748939e+003,4.628972e-004
3.750868e+003,5.638434e-004
3.752796e+003,3.041811e-005
3.754725e+003,3.564366e-004
3.756653e+003,4.988543e-004
3.758582e+003,5.218925e-005
3.760510e+003,-6.374947e-004
3.762438e+003,-7.095157e-004
3.764367e+003,-7.812271e-004
3.766295e+003,-3.516748e-004
3.768224e+003,-1.526217e-004
3.770152e+003,-2.338965e-004
3.772081e+003,-6.884708e-005
3.774009e+003,3.456018e-005
3.775938e+003,1.557328e-005
3.777866e+003,-4.946414e-004
3.779795e+003,-5.610606e-004
3.781723e+003,-4.335413e-004
3.783652e+003,-5.369695e-004
3.785580e+003,-7.533444e-004
3.787509e+003,-8.797449e-004
3.789437e+003,-1.253638e-003
3.791365e+003,-1.654309e-003
3.793294e+003,-1.157749e-003
3.795222e+003,-4.897431e-004
3.797151e+003,-5.030808e-004
3.799079e+003,-3.227050e-004
3.801008e+003,1.936122e-004
3.802936e+003,2.304421e-004
3.804865e+003,-1.335097e-004
3.806793e+003,-6.452697e-004
3.808722e+003,-6.840103e-004
3.810650e+003,-1.384219e-003
3.812579e+003,-1.478209e-003
3.814507e+003,-8.373840e-004
3.816436e+003,-5.891542e-004
3.818364e+003,-9.266975e-004
3.820292e+003,-1.417841e-003
3.822221e+003,-1.628826e-003
3.824149e+003,-1.871745e-003
3.826078e+003,-1.667380e-003
3.828006e+003,-1.271181e-003
3.829935e+003,-9.184315e-004
3.831863e+003,-5.960697e-004
3.833792e+003,-6.976729e-004
3.835720e+003,-1.485308e-003
3.837649e+003,-1.667413e-003
3.839577e+003,-1.321758e-003
3.841506e+003,-9.200186e-004
3.843434e+003,-1.345013e-003
3.845363e+003,-1.942803e-003
3.847291e+003,-1.561910e-003
3.849219e+003,-1.313499e-003
3.851148e+003,-1.643714e-003
3.853076e+003,-1.975293e-003
3.855005e+003,-2.000129e-003
3.856933e+003,-1.896950e-003
3.858862e+003,-1.377944e-003
3.860790e+003,-1.450866e-003
3.862719e+003,-1.453343e-003
3.864647e+003,-1.642921e-003
3.866576e+003,-1.551510e-003
3.868504e+003,-1.524106e-003
3.870433e+003,-1.927662e-003
3.872361e+003,-2.238093e-003
3.874290e+003,-2.076772e-003
3.876218e+003,-1.552335e-003
3.878146e+003,-1.250135e-003
3.880075e+003,-1.177213e-003
3.882003e+003,-1.258164e-003
3.883932e+003,-9.104299e-004
3.885860e+003,-1.360405e-003
3.887789e+003,-1.807803e-003
3.889717e+003,-1.960351e-003
3.891646e+003,-1.950489e-003
3.893574e+003,-2.320033e-003
3.895503e+003,-2.448944e-003
3.897431e+003,-2.221941e-003
3.899360e+003,-2.401991e-003
3.901288e+003,-2.791498e-003
3.903217e+003,-2.425979e-003
3.905145e+003,-1.543982e-003
3.907073e+003,-9.849843e-004
3.909002e+003,-1.165581e-003
3.910930e+003,-1.619847e-003
3.912859e+003,-1.532790e-003
3.914787e+003,-1.929575e-003
3.916716e+003,-2.238654e-003
3.918644e+003,-2.141532e-003
3.920573e+003,-2.007682e-003
3.922501e+003,-2.252136e-003
3.924430e+003,-2.425847e-003
3.926358e+003,-2.029746e-003
3.928287e+003,-1.778765e-003
3.930215e+003,-1.833770e-003
3.932144e+003,-1.707218e-003
3.934072e+003,-1.050139e-003
3.936000e+003,-1.195651e-003
3.937929e+003,-1.686128e-003
3.939857e+003,-1.756160e-003
3.941786e+003,-1.668205e-003
3.943714e+003,-1.791271e-003
3.945643e+003,-1.785001e-003
3.947571e+003,-1.871811e-003
3.949500e+003,-1.646288e-003
3.951428e+003,-1.592580e-003
3.953357e+003,-2.251674e-003
3.955285e+003,-1.831856e-003
3.957214e+003,-2.057415e-003
3.959142e+003,-2.646520e-003
3.961071e+003,-2.371115e-003
3.962999e+003,-2.134608e-003
3.964927e+003,-1.970906e-003
3.966856e+003,-2.056920e-003
3.968784e+003,-2.337303e-003
3.970713e+003,-2.156171e-003
3.972641e+003,-2.059954e-003
3.974570e+003,-2.319473e-003
3.976498e+003,-2.579957e-003
3.978427e+003,-2.752879e-003
3.980355e+003,-2.275143e-003
3.982284e+003,-1.942638e-003
3.984212e+003,-1.982121e-003
3.986141e+003,-2.008869e-003
3.988069e+003,-2.315551e-003
3.989998e+003,-1.850267e-003
3.991926e+003,-1.877255e-003
3.993854e+003,-2.150071e-003
3.995783e+003,-2.149973e-003
3.997711e+003,-2.041552e-003
3.999640e+003,-2.188975e-003
4.001568e+003,0.000000e+000
