3.991927e+002,0.000000e+000
4.011211e+002,0.000000e+000
4.030496e+002,0.000000e+000
4.049781e+002,0.000000e+000
4.069065e+002,0.000000e+000
4.088350e+002,0.000000e+000
4.107635e+002,0.000000e+000
4.126919e+002,0.000000e+000
4.146204e+002,0.000000e+000
4.165489e+002,0.000000e+000
4.184773e+002,0.000000e+000
4.204058e+002,0.000000e+000
4.223343e+002,0.000000e+000
4.242627e+002,0.000000e+000
4.261912e+002,0.000000e+000
4.281197e+002,0.000000e+000
4.300481e+002,0.000000e+000
4.319766e+002,0.000000e+000
4.339051e+002,0.000000e+000
4.358335e+002,0.000000e+000
4.377620e+002,0.000000e+000
4.396905e+002,0.000000e+000
4.416189e+002,0.000000e+000
4.435474e+002,0.000000e+000
4.454759e+002,0.000000e+000
4.474043e+002,0.000000e+000
4.493328e+002,0.000000e+000
4.512613e+002,0.000000e+000
4.531897e+002,0.000000e+000
4.551182e+002,0.000000e+000
4.570467e+002,0.000000e+000
4.589751e+002,0.000000e+000
4.609036e+002,0.000000e+000
4.628321e+002,0.000000e+000
4.647605e+002,0.000000e+000
4.666890e+002,0.000000e+000
4.686175e+002,0.000000e+000
4.705459e+002,0.000000e+000
4.724744e+002,0.000000e+000
4.744029e+002,0.000000e+000
4.763313e+002,0.000000e+000
4.782598e+002,0.000000e+000
4.801883e+002,0.000000e+000
4.821167e+002,0.000000e+000
4.840452e+002,0.000000e+000
4.859737e+002,0.000000e+000
4.879021e+002,0.000000e+000
4.898306e+002,0.000000e+000
4.917591e+002,0.000000e+000
4.936875e+002,0.000000e+000
4.956160e+002,0.000000e+000
4.975445e+002,0.000000e+000
4.994729e+002,0.000000e+000
5.014014e+002,0.000000e+000
5.033299e+002,0.000000e+000
5.052583e+002,0.000000e+000
5.071868e+002,0.000000e+000
5.091153e+002,0.000000e+000
5.110437e+002,0.000000e+000
5.129722e+002,0.000000e+000
5.149006e+002,0.000000e+000
5.168291e+002,0.000000e+000
5.187576e+002,0.000000e+000
5.206860e+002,0.000000e+000
5.226145e+002,0.000000e+000
5.245430e+002,0.000000e+000
5.264714e+002,0.000000e+000
5.283999e+002,0.000000e+000
5.303284e+002,0.000000e+000
5.322568e+002,0.000000e+000
5.341853e+002,0.000000e+000
5.361138e+002,0.000000e+000
5.380422e+002,0.000000e+000
5.399707e+002,0.000000e+000
5.418992e+002,0.000000e+000
5.438276e+002,0.000000e+000
5.457561e+002,0.000000e+000
5.476846e+002,0.000000e+000
5.496130e+002,0.000000e+000
5.515415e+002,0.000000e+000
5.534700e+002,0.000000e+000
5.553984e+002,0.000000e+000
5.573269e+002,0.000000e+000
5.592554e+002,0.000000e+000
5.611838e+002,0.000000e+000
5.631123e+002,0.000000e+000
5.650408e+002,0.000000e+000
5.669692e+002,0.000000e+000
5.688977e+002,0.000000e+000
5.708262e+002,0.000000e+000
5.727546e+002,0.000000e+000
5.746831e+002,0.000000e+000
5.766116e+002,0.000000e+000
5.785400e+002,0.000000e+000
5.804685e+002,0.000000e+000
5.823970e+002,0.000000e+000
5.843254e+002,0.000000e+000
5.862539e+002,0.000000e+000
5.881824e+002,0.000000e+000
5.901108e+002,0.000000e+000
5.920393e+002,0.000000e+000
5.939678e+002,0.000000e+000
5.958962e+002,0.000000e+000
5.978247e+002,0.000000e+000
5.997532e+002,0.000000e+000
6.016816e+002,0.000000e+000
6.036101e+002,0.000000e+000
6.055386e+002,0.000000e+000
6.074670e+002,0.000000e+000
6.093955e+002,0.000000e+000
6.113240e+002,0.000000e+000
6.132524e+002,0.000000e+000
6.151809e+002,0.000000e+000
6.171094e+002,0.000000e+000
6.190378e+002,0.000000e+000
6.209663e+002,0.000000e+000
6.228948e+002,0.000000e+000
6.248232e+002,0.000000e+000
6.267517e+002,0.000000e+000
6.286802e+002,0.000000e+000
6.306086e+002,0.000000e+000
6.325371e+002,0.000000e+000
6.344656e+002,0.000000e+000
6.363940e+002,0.000000e+000
6.383225e+002,0.000000e+000
6.402510e+002,0.000000e+000
6.421794e+002,0.000000e+000
6.441079e+002,0.000000e+000
6.460364e+002,0.000000e+000
6.479648e+002,0.000000e+000
6.498933e+002,3.786360e-001
6.518218e+002,3.774443e-001
6.537502e+002,3.750896e-001
6.556787e+002,3.729598e-001
6.576072e+002,3.694787e-001
6.595356e+002,3.664659e-001
6.614641e+002,3.630289e-001
6.633926e+002,3.625969e-001
6.653210e+002,3.596210e-001
6.672495e+002,3.558968e-001
6.691780e+002,3.526640e-001
6.711064e+002,3.491095e-001
6.730349e+002,3.463981e-001
6.749634e+002,3.445699e-001
6.768918e+002,3.422765e-001
6.788203e+002,3.408462e-001
6.807488e+002,3.388095e-001
6.826772e+002,3.347955e-001
6.846057e+002,3.322679e-001
6.865342e+002,3.313781e-001
6.884626e+002,3.301007e-001
6.903911e+002,3.269204e-001
6.923196e+002,3.251688e-001
6.942480e+002,3.235989e-001
6.961765e+002,3.227381e-001
6.981050e+002,3.219260e-001
7.000334e+002,3.199481e-001
7.019619e+002,3.161469e-001
7.038904e+002,3.136939e-001
7.058188e+002,3.125895e-001
7.077473e+002,3.109625e-001
7.096758e+002,3.076224e-001
7.116042e+002,3.044885e-001
7.135327e+002,3.017076e-001
7.154612e+002,2.992010e-001
7.173896e+002,2.957616e-001
7.193181e+002,2.901916e-001
7.212466e+002,2.870130e-001
7.231750e+002,2.864695e-001
7.251035e+002,2.840662e-001
7.270320e+002,2.823515e-001
7.289604e+002,2.796977e-001
7.308889e+002,2.773889e-001
7.328174e+002,2.740912e-001
7.347458e+002,2.714214e-001
7.366743e+002,2.686904e-001
7.386028e+002,2.654823e-001
7.405313e+002,2.626947e-001
7.424597e+002,2.596511e-001
7.443882e+002,2.564788e-001
7.463167e+002,2.544515e-001
7.482451e+002,2.519971e-001
7.501736e+002,2.492961e-001
7.521021e+002,2.465091e-001
7.540305e+002,2.436170e-001
7.559590e+002,2.408886e-001
7.578875e+002,2.389391e-001
7.598159e+002,2.362883e-001
7.617444e+002,2.337173e-001
7.636729e+002,2.310722e-001
7.656013e+002,2.291628e-001
7.675298e+002,2.269139e-001
7.694583e+002,2.242240e-001
7.713867e+002,2.223585e-001
7.733152e+002,2.194851e-001
7.752437e+002,2.166598e-001
7.771721e+002,2.144978e-001
7.791006e+002,2.122062e-001
7.810291e+002,2.087381e-001
7.829575e+002,2.051831e-001
7.848860e+002,2.029525e-001
7.868145e+002,2.009700e-001
7.887429e+002,1.977169e-001
7.906714e+002,1.937118e-001
7.925999e+002,1.916883e-001
7.945283e+002,1.897458e-001
7.964568e+002,1.862950e-001
7.983853e+002,1.837655e-001
8.003137e+002,1.815099e-001
8.022422e+002,1.783440e-001
8.041707e+002,1.754504e-001
8.060991e+002,1.738991e-001
8.080276e+002,1.720233e-001
8.099561e+002,1.687455e-001
8.118845e+002,1.655528e-001
8.138130e+002,1.641698e-001
8.157415e+002,1.625468e-001
8.176699e+002,1.604981e-001
8.195984e+002,1.583598e-001
8.215269e+002,1.562710e-001
8.234553e+002,1.545960e-001
8.253838e+002,1.530510e-001
8.273123e+002,1.519809e-001
8.292407e+002,1.506607e-001
8.311692e+002,1.481916e-001
8.330977e+002,1.466083e-001
8.350261e+002,1.459496e-001
8.369546e+002,1.435373e-001
8.388831e+002,1.402238e-001
8.408115e+002,1.374550e-001
8.427400e+002,1.354112e-001
8.446685e+002,1.335057e-001
8.465969e+002,1.315466e-001
8.485254e+002,1.298044e-001
8.504539e+002,1.276395e-001
8.523823e+002,1.252344e-001
8.543108e+002,1.238035e-001
8.562393e+002,1.222232e-001
8.581677e+002,1.200832e-001
8.600962e+002,1.178140e-001
8.620247e+002,1.158050e-001
8.639531e+002,1.147395e-001
8.658816e+002,1.129973e-001
8.678101e+002,1.105168e-001
8.697385e+002,1.088474e-001
8.716670e+002,1.070675e-001
8.735955e+002,1.048174e-001
8.755239e+002,1.035562e-001
8.774524e+002,1.021406e-001
8.793809e+002,1.004197e-001
8.813093e+002,9.899791e-002
8.832378e+002,9.773625e-002
8.851663e+002,9.697405e-002
8.870947e+002,9.575918e-002
8.890232e+002,9.432004e-002
8.909517e+002,9.246820e-002
8.928801e+002,9.078117e-002
8.948086e+002,8.965455e-002
8.967371e+002,8.881401e-002
8.986655e+002,8.702541e-002
9.005940e+002,8.523946e-002
9.025225e+002,8.420530e-002
9.044509e+002,8.360779e-002
9.063794e+002,8.237397e-002
9.083079e+002,8.068796e-002
9.102363e+002,7.966742e-002
9.121648e+002,7.876720e-002
9.140933e+002,7.722346e-002
9.160217e+002,7.622571e-002
9.179502e+002,7.543928e-002
9.198787e+002,7.443304e-002
9.218071e+002,7.332873e-002
9.237356e+002,7.208269e-002
9.256641e+002,7.092058e-002
9.275925e+002,6.960853e-002
9.295210e+002,6.836939e-002
9.314495e+002,6.742457e-002
9.333779e+002,6.667446e-002
9.353064e+002,6.584775e-002
9.372349e+002,6.526644e-002
9.391633e+002,6.443863e-002
9.410918e+002,6.388903e-002
9.430203e+002,6.284326e-002
9.449487e+002,6.170179e-002
9.468772e+002,6.122690e-002
9.488057e+002,6.080101e-002
9.507341e+002,6.047431e-002
9.526626e+002,5.970059e-002
9.545911e+002,5.877624e-002
9.565195e+002,5.801319e-002
9.584480e+002,5.751428e-002
9.603765e+002,5.735643e-002
9.623049e+002,5.679283e-002
9.642334e+002,5.612369e-002
9.661619e+002,5.607686e-002
9.680903e+002,5.617527e-002
9.700188e+002,5.589209e-002
9.719473e+002,5.530137e-002
9.738757e+002,5.510801e-002
9.758042e+002,5.514337e-002
9.777327e+002,5.506419e-002
9.796611e+002,5.484090e-002
9.815896e+002,5.416272e-002
9.835181e+002,5.375194e-002
9.854465e+002,5.394841e-002
9.873750e+002,5.418535e-002
9.893035e+002,5.437184e-002
9.912319e+002,5.411107e-002
9.931604e+002,5.332331e-002
9.950889e+002,5.284038e-002
9.970173e+002,5.261397e-002
9.989458e+002,5.238775e-002
1.000874e+003,5.194198e-002
1.002803e+003,5.169494e-002
1.004731e+003,5.152967e-002
1.006660e+003,5.180077e-002
1.008588e+003,5.184635e-002
1.010517e+003,5.215123e-002
1.012445e+003,5.269570e-002
1.014374e+003,5.297864e-002
1.016302e+003,5.228481e-002
1.018230e+003,5.144772e-002
1.020159e+003,5.099597e-002
1.022087e+003,5.083112e-002
1.024016e+003,5.073681e-002
1.025944e+003,5.073655e-002
1.027873e+003,5.067187e-002
1.029801e+003,5.057128e-002
1.031730e+003,5.091609e-002
1.033658e+003,5.146226e-002
1.035587e+003,5.167945e-002
1.037515e+003,5.227375e-002
1.039444e+003,5.263548e-002
1.041372e+003,5.242663e-002
1.043301e+003,5.183220e-002
1.045229e+003,5.121256e-002
1.047157e+003,5.158407e-002
1.049086e+003,5.209885e-002
1.051014e+003,5.216400e-002
1.052943e+003,5.227472e-002
1.054871e+003,5.250425e-002
1.056800e+003,5.226792e-002
1.058728e+003,5.113990e-002
1.060657e+003,5.053539e-002
1.062585e+003,5.009133e-002
1.064514e+003,4.971035e-002
1.066442e+003,4.918920e-002
1.068371e+003,4.893074e-002
1.070299e+003,4.805970e-002
1.072228e+003,4.712233e-002
1.074156e+003,4.749180e-002
1.076084e+003,4.782104e-002
1.078013e+003,4.829808e-002
1.079941e+003,4.894713e-002
1.081870e+003,4.886473e-002
1.083798e+003,4.859506e-002
1.085727e+003,4.817019e-002
1.087655e+003,4.773567e-002
1.089584e+003,4.712218e-002
1.091512e+003,4.630200e-002
1.093441e+003,4.535249e-002
1.095369e+003,4.492971e-002
1.097298e+003,4.510259e-002
1.099226e+003,4.455804e-002
1.101155e+003,4.362467e-002
1.103083e+003,4.251914e-002
1.105011e+003,4.132783e-002
1.106940e+003,4.138330e-002
1.108868e+003,4.165932e-002
1.110797e+003,4.159937e-002
1.112725e+003,4.132335e-002
1.114654e+003,4.058705e-002
1.116582e+003,4.046599e-002
1.118511e+003,4.070468e-002
1.120439e+003,4.016677e-002
1.122368e+003,3.987092e-002
1.124296e+003,4.031425e-002
1.126225e+003,4.071134e-002
1.128153e+003,4.122227e-002
1.130082e+003,4.131372e-002
1.132010e+003,4.112937e-002
1.133938e+003,4.093632e-002
1.135867e+003,4.070257e-002
1.137795e+003,4.086034e-002
1.139724e+003,4.118128e-002
1.141652e+003,4.100762e-002
1.143581e+003,4.051291e-002
1.145509e+003,4.029865e-002
1.147438e+003,4.014656e-002
1.149366e+003,3.966627e-002
1.151295e+003,3.931282e-002
1.153223e+003,3.937246e-002
1.155152e+003,3.931293e-002
1.157080e+003,3.935327e-002
1.159009e+003,3.927528e-002
1.160937e+003,3.881399e-002
1.162865e+003,3.860013e-002
1.164794e+003,3.845110e-002
1.166722e+003,3.816278e-002
1.168651e+003,3.812985e-002
1.170579e+003,3.811716e-002
1.172508e+003,3.812522e-002
1.174436e+003,3.846905e-002
1.176365e+003,3.882797e-002
1.178293e+003,3.886120e-002
1.180222e+003,3.873802e-002
1.182150e+003,3.874845e-002
1.184079e+003,3.922784e-002
1.186007e+003,3.946937e-002
1.187936e+003,3.963276e-002
1.189864e+003,3.990488e-002
1.191792e+003,4.017967e-002
1.193721e+003,4.002596e-002
1.195649e+003,4.018829e-002
1.197578e+003,4.065286e-002
1.199506e+003,4.091877e-002
1.201435e+003,4.116037e-002
1.203363e+003,4.127095e-002
1.205292e+003,4.167683e-002
1.207220e+003,4.188400e-002
1.209149e+003,4.148940e-002
1.211077e+003,4.137572e-002
1.213006e+003,4.206286e-002
1.214934e+003,4.228874e-002
1.216863e+003,4.252835e-002
1.218791e+003,4.303484e-002
1.220719e+003,4.315745e-002
1.222648e+003,4.330460e-002
1.224576e+003,4.356071e-002
1.226505e+003,4.372558e-002
1.228433e+003,4.400826e-002
1.230362e+003,4.409184e-002
1.232290e+003,4.372858e-002
1.234219e+003,4.374551e-002
1.236147e+003,4.402686e-002
1.238076e+003,4.422102e-002
1.240004e+003,4.447911e-002
1.241933e+003,4.430750e-002
1.243861e+003,4.451153e-002
1.245790e+003,4.472593e-002
1.247718e+003,4.465329e-002
1.249646e+003,4.463224e-002
1.251575e+003,4.419854e-002
1.253503e+003,4.373719e-002
1.255432e+003,4.383020e-002
1.257360e+003,4.393706e-002
1.259289e+003,4.371711e-002
1.261217e+003,4.308281e-002
1.263146e+003,4.234385e-002
1.265074e+003,4.267594e-002
1.267003e+003,4.321697e-002
1.268931e+003,4.388900e-002
1.270860e+003,4.443495e-002
1.272788e+003,4.480163e-002
1.274717e+003,4.513586e-002
1.276645e+003,4.503823e-002
1.278573e+003,4.474014e-002
1.280502e+003,4.484017e-002
1.282430e+003,4.482849e-002
1.284359e+003,4.443694e-002
1.286287e+003,4.382841e-002
1.288216e+003,4.354243e-002
1.290144e+003,4.337075e-002
1.292073e+003,4.306898e-002
1.294001e+003,4.247120e-002
1.295930e+003,4.220039e-002
1.297858e+003,4.195114e-002
1.299787e+003,4.164553e-002
1.301715e+003,4.128873e-002
1.303644e+003,4.077499e-002
1.305572e+003,4.024201e-002
1.307500e+003,4.005317e-002
1.309429e+003,3.995991e-002
1.311357e+003,3.971644e-002
1.313286e+003,3.952779e-002
1.315214e+003,3.933788e-002
1.317143e+003,3.913312e-002
1.319071e+003,3.904821e-002
1.321000e+003,3.859933e-002
1.322928e+003,3.839662e-002
1.324857e+003,3.862497e-002
1.326785e+003,3.868875e-002
1.328714e+003,3.885109e-002
1.330642e+003,3.902715e-002
1.332571e+003,3.881917e-002
1.334499e+003,3.847054e-002
1.336427e+003,3.848448e-002
1.338356e+003,3.861979e-002
1.340284e+003,3.885540e-002
1.342213e+003,3.894752e-002
1.344141e+003,3.879141e-002
1.346070e+003,3.882264e-002
1.347998e+003,3.905162e-002
1.349927e+003,3.908661e-002
1.351855e+003,3.924304e-002
1.353784e+003,3.947964e-002
1.355712e+003,3.955385e-002
1.357641e+003,3.988617e-002
1.359569e+003,4.042071e-002
1.361498e+003,4.056362e-002
1.363426e+003,4.052957e-002
1.365354e+003,4.064715e-002
1.367283e+003,4.082111e-002
1.369211e+003,4.099859e-002
1.371140e+003,4.107995e-002
1.373068e+003,4.096553e-002
1.374997e+003,4.096378e-002
1.376925e+003,4.102113e-002
1.378854e+003,4.096960e-002
1.380782e+003,4.106032e-002
1.382711e+003,4.105850e-002
1.384639e+003,4.082314e-002
1.386568e+003,4.069758e-002
1.388496e+003,4.056635e-002
1.390425e+003,4.048869e-002
1.392353e+003,4.043537e-002
1.394281e+003,4.038108e-002
1.396210e+003,4.042824e-002
1.398138e+003,4.030846e-002
1.400067e+003,4.024372e-002
1.401995e+003,4.016652e-002
1.403924e+003,4.005953e-002
1.405852e+003,4.015038e-002
1.407781e+003,4.011149e-002
1.409709e+003,3.995003e-002
1.411638e+003,3.989768e-002
1.413566e+003,3.960782e-002
1.415495e+003,3.945641e-002
1.417423e+003,3.948816e-002
1.419352e+003,3.948011e-002
1.421280e+003,3.942659e-002
1.423208e+003,3.954696e-002
1.425137e+003,3.966921e-002
1.427065e+003,3.942452e-002
1.428994e+003,3.906841e-002
1.430922e+003,3.907508e-002
1.432851e+003,3.897296e-002
1.434779e+003,3.902686e-002
1.436708e+003,3.898884e-002
1.438636e+003,3.872831e-002
1.440565e+003,3.863609e-002
1.442493e+003,3.852919e-002
1.444422e+003,3.845479e-002
1.446350e+003,3.827910e-002
1.448279e+003,3.821668e-002
1.450207e+003,3.828239e-002
1.452135e+003,3.822121e-002
1.454064e+003,3.795433e-002
1.455992e+003,3.784768e-002
1.457921e+003,3.782201e-002
1.459849e+003,3.776515e-002
1.461778e+003,3.762999e-002
1.463706e+003,3.747772e-002
1.465635e+003,3.731806e-002
1.467563e+003,3.697713e-002
1.469492e+003,3.643354e-002
1.471420e+003,3.634106e-002
1.473349e+003,3.619431e-002
1.475277e+003,3.614026e-002
1.477206e+003,3.615099e-002
1.479134e+003,3.593531e-002
1.481063e+003,3.588819e-002
1.482991e+003,3.611120e-002
1.484919e+003,3.608355e-002
1.486848e+003,3.581190e-002
1.488776e+003,3.584616e-002
1.490705e+003,3.594131e-002
1.492633e+003,3.605337e-002
1.494562e+003,3.616536e-002
1.496490e+003,3.626829e-002
1.498419e+003,3.653063e-002
1.500347e+003,3.668913e-002
1.502276e+003,3.718015e-002
1.504204e+003,3.767595e-002
1.506133e+003,3.795770e-002
1.508061e+003,3.832477e-002
1.509990e+003,3.882652e-002
1.511918e+003,3.925025e-002
1.513846e+003,3.966111e-002
1.515775e+003,3.985381e-002
1.517703e+003,3.953222e-002
1.519632e+003,3.902371e-002
1.521560e+003,3.859220e-002
1.523489e+003,3.831648e-002
1.525417e+003,3.786908e-002
1.527346e+003,3.738977e-002
1.529274e+003,3.719510e-002
1.531203e+003,3.695259e-002
1.533131e+003,3.690728e-002
1.535060e+003,3.727618e-002
1.536988e+003,3.747158e-002
1.538917e+003,3.787446e-002
1.540845e+003,3.856156e-002
1.542773e+003,3.907004e-002
1.544702e+003,3.929541e-002
1.546630e+003,3.949640e-002
1.548559e+003,3.971658e-002
1.550487e+003,4.014380e-002
1.552416e+003,4.085161e-002
1.554344e+003,4.180599e-002
1.556273e+003,4.240435e-002
1.558201e+003,4.300199e-002
1.560130e+003,4.399118e-002
1.562058e+003,4.498252e-002
1.563987e+003,4.586847e-002
1.565915e+003,4.660401e-002
1.567844e+003,4.752592e-002
1.569772e+003,4.856082e-002
1.571700e+003,4.956708e-002
1.573629e+003,5.071432e-002
1.575557e+003,5.197458e-002
1.577486e+003,5.341218e-002
1.579414e+003,5.468593e-002
1.581343e+003,5.598839e-002
1.583271e+003,5.752140e-002
1.585200e+003,5.896574e-002
1.587128e+003,6.063479e-002
1.589057e+003,6.242764e-002
1.590985e+003,6.424508e-002
1.592914e+003,6.598222e-002
1.594842e+003,6.804749e-002
1.596771e+003,7.052584e-002
1.598699e+003,7.301285e-002
1.600627e+003,7.563398e-002
1.602556e+003,7.862573e-002
1.604484e+003,8.178793e-002
1.606413e+003,8.487819e-002
1.608341e+003,8.793571e-002
1.610270e+003,9.099333e-002
1.612198e+003,9.376939e-002
1.614127e+003,9.657942e-002
1.616055e+003,9.955811e-002
1.617984e+003,1.024649e-001
1.619912e+003,1.051992e-001
1.621841e+003,1.076077e-001
1.623769e+003,1.099185e-001
1.625698e+003,1.122067e-001
1.627626e+003,1.142175e-001
1.629554e+003,1.159489e-001
1.631483e+003,1.175218e-001
1.633411e+003,1.186316e-001
1.635340e+003,1.193262e-001
1.637268e+003,1.196215e-001
1.639197e+003,1.194140e-001
1.641125e+003,1.186629e-001
1.643054e+003,1.177388e-001
1.644982e+003,1.165491e-001
1.646911e+003,1.152295e-001
1.648839e+003,1.137819e-001
1.650768e+003,1.117999e-001
1.652696e+003,1.095882e-001
1.654625e+003,1.074279e-001
1.656553e+003,1.051771e-001
1.658481e+003,1.028053e-001
1.660410e+003,1.002212e-001
1.662338e+003,9.750186e-002
1.664267e+003,9.493294e-002
1.666195e+003,9.245729e-002
1.668124e+003,8.992212e-002
1.670052e+003,8.708639e-002
1.671981e+003,8.441825e-002
1.673909e+003,8.217318e-002
1.675838e+003,7.977706e-002
1.677766e+003,7.727056e-002
1.679695e+003,7.496651e-002
1.681623e+003,7.272326e-002
1.683552e+003,7.051672e-002
1.685480e+003,6.839820e-002
1.687408e+003,6.648837e-002
1.689337e+003,6.458094e-002
1.691265e+003,6.263224e-002
1.693194e+003,6.089897e-002
1.695122e+003,5.944569e-002
1.697051e+003,5.790285e-002
1.698979e+003,5.624553e-002
1.700908e+003,5.468139e-002
1.702836e+003,5.327240e-002
1.704765e+003,5.172849e-002
1.706693e+003,5.000674e-002
1.708622e+003,4.873486e-002
1.710550e+003,4.763583e-002
1.712479e+003,4.641518e-002
1.714407e+003,4.541149e-002
1.716335e+003,4.442758e-002
1.718264e+003,4.318483e-002
1.720192e+003,4.190136e-002
1.722121e+003,4.059443e-002
1.724049e+003,3.891215e-002
1.725978e+003,3.706867e-002
1.727906e+003,3.527488e-002
1.729835e+003,3.326441e-002
1.731763e+003,3.149047e-002
1.733692e+003,2.990943e-002
1.735620e+003,2.835421e-002
1.737549e+003,2.694336e-002
1.739477e+003,2.565234e-002
1.741406e+003,2.442898e-002
1.743334e+003,2.339483e-002
1.745262e+003,2.251412e-002
1.747191e+003,2.157274e-002
1.749119e+003,2.063639e-002
1.751048e+003,1.997050e-002
1.752976e+003,1.959778e-002
1.754905e+003,1.893850e-002
1.756833e+003,1.821808e-002
1.758762e+003,1.780326e-002
1.760690e+003,1.764887e-002
1.762619e+003,1.727979e-002
1.764547e+003,1.669494e-002
1.766476e+003,1.615843e-002
1.768404e+003,1.573811e-002
1.770333e+003,1.523292e-002
1.772261e+003,1.471083e-002
1.774189e+003,1.434749e-002
1.776118e+003,1.412901e-002
1.778046e+003,1.395194e-002
1.779975e+003,1.348921e-002
1.781903e+003,1.312966e-002
1.783832e+003,1.278569e-002
1.785760e+003,1.247790e-002
1.787689e+003,1.233109e-002
1.789617e+003,1.196840e-002
1.791546e+003,1.149438e-002
1.793474e+003,1.122296e-002
1.795403e+003,1.106869e-002
1.797331e+003,1.100154e-002
1.799260e+003,1.092613e-002
1.801188e+003,1.069191e-002
1.803116e+003,1.050097e-002
1.805045e+003,1.018183e-002
1.806973e+003,1.008178e-002
1.808902e+003,1.027454e-002
1.810830e+003,1.018468e-002
1.812759e+003,9.932760e-003
1.814687e+003,9.840120e-003
1.816616e+003,9.798399e-003
1.818544e+003,9.794434e-003
1.820473e+003,9.745771e-003
1.822401e+003,9.545551e-003
1.824330e+003,9.516321e-003
1.826258e+003,9.488347e-003
1.828187e+003,9.281171e-003
1.830115e+003,9.174659e-003
1.832043e+003,9.178213e-003
1.833972e+003,9.158822e-003
1.835900e+003,9.018847e-003
1.837829e+003,8.845473e-003
1.839757e+003,8.821396e-003
1.841686e+003,8.823493e-003
1.843614e+003,8.901949e-003
1.845543e+003,8.960664e-003
1.847471e+003,8.725409e-003
1.849400e+003,8.637995e-003
1.851328e+003,8.613829e-003
1.853257e+003,8.550394e-003
1.855185e+003,8.750325e-003
1.857114e+003,8.841212e-003
1.859042e+003,8.601053e-003
1.860970e+003,8.382713e-003
1.862899e+003,8.310261e-003
1.864827e+003,8.286789e-003
1.866756e+003,8.222863e-003
1.868684e+003,8.404873e-003
1.870613e+003,8.619405e-003
1.872541e+003,8.356838e-003
1.874470e+003,8.344645e-003
1.876398e+003,8.412170e-003
1.878327e+003,8.259198e-003
1.880255e+003,8.223167e-003
1.882183e+003,8.168062e-003
1.884112e+003,8.244069e-003
1.886040e+003,8.451190e-003
1.887969e+003,8.578274e-003
1.889897e+003,8.552558e-003
1.891826e+003,8.358933e-003
1.893754e+003,8.262339e-003
1.895683e+003,8.365452e-003
1.897611e+003,8.470617e-003
1.899540e+003,8.477712e-003
1.901468e+003,8.429129e-003
1.903397e+003,8.528193e-003
1.905325e+003,8.736701e-003
1.907254e+003,8.811625e-003
1.909182e+003,8.781059e-003
1.911110e+003,8.784406e-003
1.913039e+003,8.938679e-003
1.914967e+003,9.019625e-003
1.916896e+003,8.855043e-003
1.918824e+003,8.710636e-003
1.920753e+003,8.680618e-003
1.922681e+003,8.751204e-003
1.924610e+003,8.898330e-003
1.926538e+003,8.900326e-003
1.928467e+003,8.788937e-003
1.930395e+003,8.866710e-003
1.932324e+003,8.887880e-003
1.934252e+003,8.946898e-003
1.936181e+003,9.165116e-003
1.938109e+003,9.165353e-003
1.940037e+003,9.157130e-003
1.941966e+003,9.267191e-003
1.943894e+003,9.193036e-003
1.945823e+003,9.242957e-003
1.947751e+003,9.571496e-003
1.949680e+003,9.581184e-003
1.951608e+003,9.442021e-003
1.953537e+003,9.768068e-003
1.955465e+003,9.959203e-003
1.957394e+003,9.802364e-003
1.959322e+003,9.682103e-003
1.961251e+003,9.733233e-003
1.963179e+003,9.771490e-003
1.965108e+003,9.914996e-003
1.967036e+003,9.943066e-003
1.968964e+003,9.868591e-003
1.970893e+003,9.902081e-003
1.972821e+003,9.887166e-003
1.974750e+003,1.008734e-002
1.976678e+003,1.026488e-002
1.978607e+003,1.018275e-002
1.980535e+003,1.021877e-002
1.982464e+003,1.042242e-002
1.984392e+003,1.057131e-002
1.986321e+003,1.064709e-002
1.988249e+003,1.083967e-002
1.990178e+003,1.095556e-002
1.992106e+003,1.110075e-002
1.994035e+003,1.106132e-002
1.995963e+003,1.104718e-002
1.997891e+003,1.111540e-002
1.999820e+003,1.128931e-002
2.001748e+003,1.152830e-002
2.003677e+003,1.157356e-002
2.005605e+003,1.146696e-002
2.007534e+003,1.150170e-002
2.009462e+003,1.164247e-002
2.011391e+003,1.184254e-002
2.013319e+003,1.192062e-002
2.015248e+003,1.193830e-002
2.017176e+003,1.203064e-002
2.019105e+003,1.220328e-002
2.021033e+003,1.237452e-002
2.022962e+003,1.237926e-002
2.024890e+003,1.231193e-002
2.026818e+003,1.254215e-002
2.028747e+003,1.284685e-002
2.030675e+003,1.280176e-002
2.032604e+003,1.275519e-002
2.034532e+003,1.275222e-002
2.036461e+003,1.284217e-002
2.038389e+003,1.304057e-002
2.040318e+003,1.310244e-002
2.042246e+003,1.323267e-002
2.044175e+003,1.343863e-002
2.046103e+003,1.331678e-002
2.048032e+003,1.318253e-002
2.049960e+003,1.324521e-002
2.051889e+003,1.328740e-002
2.053817e+003,1.337938e-002
2.055746e+003,1.347770e-002
2.057674e+003,1.363895e-002
2.059603e+003,1.377529e-002
2.061531e+003,1.379554e-002
2.063459e+003,1.362985e-002
2.065388e+003,1.383090e-002
2.067316e+003,1.411190e-002
2.069245e+003,1.408369e-002
2.071173e+003,1.400211e-002
2.073102e+003,1.395971e-002
2.075030e+003,1.405861e-002
2.076959e+003,1.423055e-002
2.078887e+003,1.443178e-002
2.080816e+003,1.439040e-002
2.082744e+003,1.427513e-002
2.084673e+003,1.450553e-002
2.086601e+003,1.456919e-002
2.088530e+003,1.445096e-002
2.090458e+003,1.448648e-002
2.092386e+003,1.455552e-002
2.094315e+003,1.441890e-002
2.096243e+003,1.440773e-002
2.098172e+003,1.457309e-002
2.100100e+003,1.455093e-002
2.102029e+003,1.460931e-002
2.103957e+003,1.466202e-002
2.105886e+003,1.468988e-002
2.107814e+003,1.475069e-002
2.109743e+003,1.482961e-002
2.111671e+003,1.469290e-002
2.113600e+003,1.457275e-002
2.115528e+003,1.481555e-002
2.117457e+003,1.503715e-002
2.119385e+003,1.487994e-002
2.121313e+003,1.465863e-002
2.123242e+003,1.461007e-002
2.125170e+003,1.451759e-002
2.127099e+003,1.427304e-002
2.129027e+003,1.435718e-002
2.130956e+003,1.486914e-002
2.132884e+003,1.490576e-002
2.134813e+003,1.459420e-002
2.136741e+003,1.456600e-002
2.138670e+003,1.451718e-002
2.140598e+003,1.439821e-002
2.142527e+003,1.451594e-002
2.144455e+003,1.453972e-002
2.146384e+003,1.441427e-002
2.148312e+003,1.426780e-002
2.150240e+003,1.431495e-002
2.152169e+003,1.431968e-002
2.154097e+003,1.419741e-002
2.156026e+003,1.421839e-002
2.157954e+003,1.421120e-002
2.159883e+003,1.411915e-002
2.161811e+003,1.394373e-002
2.163740e+003,1.378904e-002
2.165668e+003,1.368063e-002
2.167597e+003,1.369567e-002
2.169525e+003,1.375073e-002
2.171454e+003,1.374864e-002
2.173382e+003,1.359532e-002
2.175311e+003,1.348600e-002
2.177239e+003,1.348894e-002
2.179167e+003,1.354223e-002
2.181096e+003,1.346714e-002
2.183024e+003,1.336591e-002
2.184953e+003,1.324231e-002
2.186881e+003,1.308882e-002
2.188810e+003,1.311153e-002
2.190738e+003,1.315538e-002
2.192667e+003,1.302613e-002
2.194595e+003,1.273522e-002
2.196524e+003,1.239365e-002
2.198452e+003,1.230890e-002
2.200381e+003,1.230402e-002
2.202309e+003,1.228272e-002
2.204238e+003,1.236794e-002
2.206166e+003,1.233791e-002
2.208094e+003,1.231057e-002
2.210023e+003,1.211737e-002
2.211951e+003,1.202849e-002
2.213880e+003,1.182299e-002
2.215808e+003,1.157026e-002
2.217737e+003,1.155284e-002
2.219665e+003,1.138355e-002
2.221594e+003,1.136124e-002
2.223522e+003,1.134964e-002
2.225451e+003,1.133015e-002
2.227379e+003,1.135882e-002
2.229308e+003,1.133025e-002
2.231236e+003,1.100979e-002
2.233165e+003,1.077750e-002
2.235093e+003,1.071501e-002
2.237021e+003,1.080597e-002
2.238950e+003,1.082920e-002
2.240878e+003,1.061198e-002
2.242807e+003,1.051526e-002
2.244735e+003,1.056506e-002
2.246664e+003,1.052065e-002
2.248592e+003,1.029667e-002
2.250521e+003,1.011929e-002
2.252449e+003,1.033294e-002
2.254378e+003,1.033334e-002
2.256306e+003,1.013214e-002
2.258235e+003,9.862083e-003
2.260163e+003,9.694131e-003
2.262092e+003,9.756207e-003
2.264020e+003,9.600356e-003
2.265948e+003,9.534915e-003
2.267877e+003,9.572376e-003
2.269805e+003,9.435215e-003
2.271734e+003,9.334318e-003
2.273662e+003,9.236526e-003
2.275591e+003,8.996520e-003
2.277519e+003,8.988368e-003
2.279448e+003,8.974195e-003
2.281376e+003,8.933369e-003
2.283305e+003,8.995370e-003
2.285233e+003,8.943584e-003
2.287162e+003,8.750427e-003
2.289090e+003,8.585710e-003
2.291019e+003,8.532147e-003
2.292947e+003,8.598890e-003
2.294875e+003,8.609198e-003
2.296804e+003,8.706106e-003
2.298732e+003,8.435042e-003
2.300661e+003,8.175152e-003
2.302589e+003,8.393422e-003
2.304518e+003,8.446089e-003
2.306446e+003,8.207296e-003
2.308375e+003,8.084810e-003
2.310303e+003,7.966239e-003
2.312232e+003,7.762520e-003
2.314160e+003,7.829820e-003
2.316089e+003,7.918894e-003
2.318017e+003,7.895544e-003
2.319946e+003,7.986724e-003
2.321874e+003,7.920784e-003
2.323802e+003,7.722955e-003
2.325731e+003,7.799963e-003
2.327659e+003,7.558964e-003
2.329588e+003,7.264590e-003
2.331516e+003,7.273181e-003
2.333445e+003,7.301283e-003
2.335373e+003,7.157897e-003
2.337302e+003,7.174572e-003
2.339230e+003,7.125494e-003
2.341159e+003,7.051602e-003
2.343087e+003,7.061671e-003
2.345016e+003,7.114345e-003
2.346944e+003,7.036650e-003
2.348873e+003,6.961762e-003
2.350801e+003,6.953244e-003
2.352729e+003,7.028635e-003
2.354658e+003,6.942234e-003
2.356586e+003,6.847537e-003
2.358515e+003,6.807617e-003
2.360443e+003,6.741283e-003
2.362372e+003,6.696528e-003
2.364300e+003,6.709113e-003
2.366229e+003,6.715674e-003
2.368157e+003,6.500533e-003
2.370086e+003,6.367297e-003
2.372014e+003,6.096881e-003
2.373943e+003,6.145204e-003
2.375871e+003,6.367634e-003
2.377800e+003,6.377048e-003
2.379728e+003,6.179518e-003
2.381656e+003,6.200624e-003
2.383585e+003,6.226875e-003
2.385513e+003,6.172930e-003
2.387442e+003,6.000721e-003
2.389370e+003,5.859175e-003
2.391299e+003,5.940422e-003
2.393227e+003,5.923728e-003
2.395156e+003,5.687796e-003
2.397084e+003,5.696356e-003
2.399013e+003,5.791072e-003
2.400941e+003,5.666277e-003
2.402870e+003,5.521215e-003
2.404798e+003,5.520813e-003
2.406727e+003,5.404986e-003
2.408655e+003,5.395794e-003
2.410583e+003,5.566253e-003
2.412512e+003,5.390393e-003
2.414440e+003,5.195390e-003
2.416369e+003,5.239755e-003
2.418297e+003,5.371707e-003
2.420226e+003,5.487827e-003
2.422154e+003,5.424009e-003
2.424083e+003,5.097485e-003
2.426011e+003,4.771809e-003
2.427940e+003,4.827925e-003
2.429868e+003,5.048272e-003
2.431797e+003,5.283791e-003
2.433725e+003,5.206590e-003
2.435654e+003,4.942961e-003
2.437582e+003,4.846788e-003
2.439510e+003,4.916888e-003
2.441439e+003,5.042205e-003
2.443367e+003,5.043915e-003
2.445296e+003,4.996518e-003
2.447224e+003,4.860827e-003
2.449153e+003,4.755561e-003
2.451081e+003,4.594060e-003
2.453010e+003,4.319056e-003
2.454938e+003,4.379833e-003
2.456867e+003,4.574906e-003
2.458795e+003,4.852384e-003
2.460724e+003,5.086690e-003
2.462652e+003,5.014752e-003
2.464581e+003,4.820319e-003
2.466509e+003,4.669411e-003
2.468438e+003,4.525920e-003
2.470366e+003,4.439514e-003
2.472294e+003,4.551936e-003
2.474223e+003,4.545608e-003
2.476151e+003,4.384452e-003
2.478080e+003,4.348239e-003
2.480008e+003,4.388033e-003
2.481937e+003,4.512930e-003
2.483865e+003,4.533655e-003
2.485794e+003,4.519325e-003
2.487722e+003,4.607589e-003
2.489651e+003,4.671152e-003
2.491579e+003,4.487117e-003
2.493508e+003,4.564559e-003
2.495436e+003,4.739750e-003
2.497365e+003,4.517483e-003
2.499293e+003,4.205423e-003
2.501221e+003,4.138281e-003
2.503150e+003,4.116171e-003
2.505078e+003,4.270300e-003
2.507007e+003,4.226802e-003
2.508935e+003,4.269731e-003
2.510864e+003,4.528867e-003
2.512792e+003,4.485377e-003
2.514721e+003,4.392954e-003
2.516649e+003,4.258890e-003
2.518578e+003,4.079612e-003
2.520506e+003,4.106002e-003
2.522435e+003,4.207598e-003
2.524363e+003,4.159088e-003
2.526292e+003,4.254072e-003
2.528220e+003,4.416484e-003
2.530148e+003,4.393991e-003
2.532077e+003,4.373173e-003
2.534005e+003,4.379063e-003
2.535934e+003,4.281644e-003
2.537862e+003,4.146845e-003
2.539791e+003,4.022288e-003
2.541719e+003,4.000751e-003
2.543648e+003,4.196289e-003
2.545576e+003,4.177321e-003
2.547505e+003,4.122158e-003
2.549433e+003,4.384619e-003
2.551362e+003,4.452536e-003
2.553290e+003,4.168188e-003
2.555219e+003,4.035063e-003
2.557147e+003,4.010918e-003
2.559075e+003,4.179562e-003
2.561004e+003,4.205423e-003
2.562932e+003,3.898402e-003
2.564861e+003,3.605061e-003
2.566789e+003,3.820878e-003
2.568718e+003,4.285492e-003
2.570646e+003,4.222319e-003
2.572575e+003,3.964603e-003
2.574503e+003,3.749618e-003
2.576432e+003,3.825357e-003
2.578360e+003,3.926319e-003
2.580289e+003,4.095265e-003
2.582217e+003,4.118713e-003
2.584146e+003,4.058607e-003
2.586074e+003,3.931401e-003
2.588002e+003,3.712354e-003
2.589931e+003,3.858184e-003
2.591859e+003,4.063725e-003
2.593788e+003,3.898335e-003
2.595716e+003,3.923777e-003
2.597645e+003,3.800387e-003
2.599573e+003,3.797079e-003
2.601502e+003,4.059444e-003
2.603430e+003,4.054628e-003
2.605359e+003,4.018007e-003
2.607287e+003,4.042788e-003
2.609216e+003,3.992425e-003
2.611144e+003,3.876002e-003
2.613073e+003,3.813323e-003
2.615001e+003,4.082354e-003
2.616929e+003,4.127811e-003
2.618858e+003,4.007841e-003
2.620786e+003,3.804399e-003
2.622715e+003,3.904085e-003
2.624643e+003,4.287098e-003
2.626572e+003,4.118813e-003
2.628500e+003,3.946949e-003
2.630429e+003,3.880682e-003
2.632357e+003,3.907763e-003
2.634286e+003,3.888405e-003
2.636214e+003,4.008945e-003
2.638143e+003,3.863031e-003
2.640071e+003,3.865003e-003
2.642000e+003,4.018442e-003
2.643928e+003,3.923510e-003
2.645856e+003,4.126908e-003
2.647785e+003,4.298643e-003
2.649713e+003,4.290244e-003
2.651642e+003,4.136006e-003
2.653570e+003,4.002390e-003
2.655499e+003,4.094195e-003
2.657427e+003,4.059812e-003
2.659356e+003,4.143533e-003
2.661284e+003,4.331974e-003
2.663213e+003,4.231554e-003
2.665141e+003,4.144035e-003
2.667070e+003,4.056734e-003
2.668998e+003,4.085532e-003
2.670927e+003,4.122827e-003
2.672855e+003,4.261299e-003
2.674783e+003,4.446142e-003
2.676712e+003,4.288436e-003
2.678640e+003,4.165110e-003
2.680569e+003,4.309285e-003
2.682497e+003,4.340575e-003
2.684426e+003,4.287499e-003
2.686354e+003,4.174578e-003
2.688283e+003,4.365040e-003
2.690211e+003,4.389673e-003
2.692140e+003,4.222921e-003
2.694068e+003,4.493980e-003
2.695997e+003,4.402191e-003
2.697925e+003,4.022388e-003
2.699854e+003,4.115301e-003
2.701782e+003,4.421170e-003
2.703710e+003,4.380436e-003
2.705639e+003,4.237107e-003
2.707567e+003,4.736735e-003
2.709496e+003,5.167223e-003
2.711424e+003,5.012440e-003
2.713353e+003,5.010026e-003
2.715281e+003,5.231975e-003
2.717210e+003,5.389118e-003
2.719138e+003,5.226140e-003
2.721067e+003,4.970443e-003
2.722995e+003,5.078275e-003
2.724924e+003,5.026249e-003
2.726852e+003,4.928416e-003
2.728781e+003,4.799078e-003
2.730709e+003,4.643321e-003
2.732637e+003,5.025880e-003
2.734566e+003,5.435718e-003
2.736494e+003,5.433068e-003
2.738423e+003,5.280001e-003
2.740351e+003,5.211351e-003
2.742280e+003,5.307169e-003
2.744208e+003,5.374525e-003
2.746137e+003,5.393077e-003
2.748065e+003,5.617034e-003
2.749994e+003,5.816055e-003
2.751922e+003,5.837682e-003
2.753851e+003,5.881979e-003
2.755779e+003,6.028304e-003
2.757708e+003,6.433944e-003
2.759636e+003,6.295954e-003
2.761564e+003,6.079341e-003
2.763493e+003,5.995111e-003
2.765421e+003,6.034922e-003
2.767350e+003,6.178106e-003
2.769278e+003,6.083743e-003
2.771207e+003,6.087842e-003
2.773135e+003,6.377855e-003
2.775064e+003,6.612716e-003
2.776992e+003,6.794053e-003
2.778921e+003,6.852216e-003
2.780849e+003,6.892005e-003
2.782778e+003,6.820979e-003
2.784706e+003,6.798193e-003
2.786635e+003,6.693769e-003
2.788563e+003,6.870393e-003
2.790491e+003,7.318670e-003
2.792420e+003,7.406292e-003
2.794348e+003,7.406056e-003
2.796277e+003,7.469660e-003
2.798205e+003,7.491773e-003
2.800134e+003,7.638439e-003
2.802062e+003,7.635944e-003
2.803991e+003,7.752873e-003
2.805919e+003,8.115732e-003
2.807848e+003,8.304182e-003
2.809776e+003,8.211348e-003
2.811705e+003,8.324379e-003
2.813633e+003,8.839420e-003
2.815562e+003,8.967666e-003
2.817490e+003,8.817947e-003
2.819418e+003,8.984039e-003
2.821347e+003,9.191953e-003
2.823275e+003,9.297183e-003
2.825204e+003,9.157265e-003
2.827132e+003,9.210228e-003
2.829061e+003,9.615803e-003
2.830989e+003,1.003166e-002
2.832918e+003,1.005204e-002
2.834846e+003,1.000301e-002
2.836775e+003,1.024706e-002
2.838703e+003,1.055627e-002
2.840632e+003,1.081847e-002
2.842560e+003,1.101635e-002
2.844489e+003,1.118369e-002
2.846417e+003,1.086895e-002
2.848345e+003,1.110415e-002
2.850274e+003,1.130631e-002
2.852202e+003,1.120433e-002
2.854131e+003,1.124112e-002
2.856059e+003,1.131022e-002
2.857988e+003,1.153633e-002
2.859916e+003,1.199300e-002
2.861845e+003,1.248462e-002
2.863773e+003,1.289859e-002
2.865702e+003,1.365902e-002
2.867630e+003,1.380846e-002
2.869558e+003,1.349875e-002
2.871487e+003,1.373691e-002
2.873415e+003,1.444089e-002
2.875344e+003,1.469886e-002
2.877272e+003,1.420131e-002
2.879201e+003,1.441626e-002
2.881129e+003,1.508723e-002
2.883058e+003,1.558759e-002
2.884986e+003,1.562080e-002
2.886915e+003,1.569321e-002
2.888843e+003,1.626870e-002
2.890771e+003,1.649393e-002
2.892700e+003,1.664271e-002
2.894628e+003,1.672469e-002
2.896557e+003,1.686442e-002
2.898485e+003,1.720687e-002
2.900414e+003,1.741800e-002
2.902342e+003,1.767213e-002
2.904271e+003,1.791180e-002
2.906199e+003,1.844035e-002
2.908128e+003,1.890188e-002
2.910056e+003,1.914161e-002
2.911985e+003,1.911806e-002
2.913913e+003,1.954298e-002
2.915842e+003,2.020214e-002
2.917770e+003,2.058275e-002
2.919698e+003,2.082288e-002
2.921627e+003,2.105449e-002
2.923555e+003,2.112841e-002
2.925484e+003,2.112945e-002
2.927412e+003,2.159796e-002
2.929341e+003,2.249751e-002
2.931269e+003,2.272093e-002
2.933198e+003,2.290842e-002
2.935126e+003,2.338235e-002
2.937055e+003,2.385169e-002
2.938983e+003,2.442733e-002
2.940912e+003,2.484268e-002
2.942840e+003,2.575288e-002
2.944769e+003,2.622679e-002
2.946697e+003,2.614550e-002
2.948625e+003,2.592836e-002
2.950554e+003,2.618203e-002
2.952482e+003,2.679161e-002
2.954411e+003,2.727421e-002
2.956339e+003,2.784212e-002
2.958268e+003,2.826258e-002
2.960196e+003,2.864324e-002
2.962125e+003,2.898269e-002
2.964053e+003,2.946251e-002
2.965982e+003,3.036374e-002
2.967910e+003,3.098638e-002
2.969839e+003,3.132182e-002
2.971767e+003,3.168628e-002
2.973696e+003,3.185251e-002
2.975624e+003,3.280592e-002
2.977552e+003,3.369782e-002
2.979481e+003,3.390942e-002
2.981409e+003,3.418009e-002
2.983338e+003,3.472789e-002
2.985266e+003,3.531218e-002
2.987195e+003,3.578287e-002
2.989123e+003,3.627275e-002
2.991052e+003,3.710230e-002
2.992980e+003,3.806688e-002
2.994909e+003,3.845366e-002
2.996837e+003,3.906757e-002
2.998766e+003,4.009093e-002
3.000694e+003,4.081408e-002
3.002623e+003,4.118288e-002
3.004551e+003,4.179341e-002
3.006479e+003,4.278419e-002
3.008408e+003,4.347801e-002
3.010336e+003,4.390044e-002
3.012265e+003,4.455415e-002
3.014193e+003,4.533215e-002
3.016122e+003,4.561879e-002
3.018050e+003,4.622095e-002
3.019979e+003,4.735875e-002
3.021907e+003,4.865984e-002
3.023836e+003,4.945857e-002
3.025764e+003,5.003143e-002
3.027693e+003,5.093900e-002
3.029621e+003,5.196076e-002
3.031550e+003,5.281310e-002
3.033478e+003,5.357805e-002
3.035406e+003,5.447358e-002
3.037335e+003,5.563685e-002
3.039263e+003,5.681348e-002
3.041192e+003,5.782476e-002
3.043120e+003,5.847586e-002
3.045049e+003,5.922146e-002
3.046977e+003,6.037587e-002
3.048906e+003,6.175477e-002
3.050834e+003,6.266734e-002
3.052763e+003,6.375773e-002
3.054691e+003,6.467791e-002
3.056620e+003,6.592483e-002
3.058548e+003,6.746145e-002
3.060477e+003,6.813454e-002
3.062405e+003,6.899662e-002
3.064333e+003,7.054096e-002
3.066262e+003,7.167388e-002
3.068190e+003,7.276373e-002
3.070119e+003,7.391767e-002
3.072047e+003,7.572284e-002
3.073976e+003,7.696059e-002
3.075904e+003,7.800908e-002
3.077833e+003,7.940960e-002
3.079761e+003,8.101753e-002
3.081690e+003,8.224745e-002
3.083618e+003,8.357465e-002
3.085547e+003,8.480077e-002
3.087475e+003,8.572038e-002
3.089404e+003,8.709740e-002
3.091332e+003,8.841653e-002
3.093260e+003,9.007359e-002
3.095189e+003,9.155925e-002
3.097117e+003,9.370024e-002
3.099046e+003,9.529772e-002
3.100974e+003,9.601697e-002
3.102903e+003,9.723332e-002
3.104831e+003,9.927680e-002
3.106760e+003,1.013455e-001
3.108688e+003,1.029821e-001
3.110617e+003,1.041711e-001
3.112545e+003,1.057961e-001
3.114474e+003,1.075452e-001
3.116402e+003,1.086982e-001
3.118331e+003,1.102448e-001
3.120259e+003,1.124383e-001
3.122188e+003,1.146763e-001
3.124116e+003,1.171156e-001
3.126044e+003,1.190816e-001
3.127973e+003,1.204718e-001
3.129901e+003,1.218682e-001
3.131830e+003,1.237660e-001
3.133758e+003,1.253662e-001
3.135687e+003,1.264152e-001
3.137615e+003,1.282441e-001
3.139544e+003,1.307587e-001
3.141472e+003,1.323410e-001
3.143401e+003,1.336581e-001
3.145329e+003,1.354860e-001
3.147258e+003,1.378279e-001
3.149186e+003,1.399697e-001
3.151115e+003,1.421232e-001
3.153043e+003,1.442026e-001
3.154971e+003,1.458739e-001
3.156900e+003,1.479514e-001
3.158828e+003,1.496208e-001
3.160757e+003,1.511605e-001
3.162685e+003,1.533045e-001
3.164614e+003,1.555102e-001
3.166542e+003,1.571740e-001
3.168471e+003,1.587148e-001
3.170399e+003,1.602127e-001
3.172328e+003,1.621793e-001
3.174256e+003,1.637582e-001
3.176185e+003,1.651472e-001
3.178113e+003,1.669137e-001
3.180042e+003,1.691361e-001
3.181970e+003,1.714294e-001
3.183898e+003,1.729080e-001
3.185827e+003,1.742365e-001
3.187755e+003,1.753701e-001
3.189684e+003,1.767077e-001
3.191612e+003,1.783776e-001
3.193541e+003,1.803774e-001
3.195469e+003,1.820821e-001
3.197398e+003,1.833722e-001
3.199326e+003,1.852225e-001
3.201255e+003,1.867741e-001
3.203183e+003,1.878924e-001
3.205112e+003,1.897320e-001
3.207040e+003,1.917059e-001
3.208969e+003,1.929640e-001
3.210897e+003,1.931428e-001
3.212825e+003,1.939532e-001
3.214754e+003,1.958561e-001
3.216682e+003,1.971572e-001
3.218611e+003,1.976503e-001
3.220539e+003,1.981094e-001
3.222468e+003,1.993359e-001
3.224396e+003,2.006269e-001
3.226325e+003,2.015325e-001
3.228253e+003,2.020550e-001
3.230182e+003,2.032623e-001
3.232110e+003,2.050445e-001
3.234039e+003,2.056117e-001
3.235967e+003,2.058111e-001
3.237896e+003,2.067350e-001
3.239824e+003,2.081014e-001
3.241752e+003,2.081726e-001
3.243681e+003,2.078001e-001
3.245609e+003,2.081282e-001
3.247538e+003,2.092214e-001
3.249466e+003,2.106246e-001
3.251395e+003,2.107965e-001
3.253323e+003,2.111692e-001
3.255252e+003,2.115435e-001
3.257180e+003,2.114304e-001
3.259109e+003,2.109343e-001
3.261037e+003,2.118904e-001
3.262966e+003,2.122044e-001
3.264894e+003,2.122055e-001
3.266823e+003,2.126198e-001
3.268751e+003,2.124556e-001
3.270679e+003,2.119025e-001
3.272608e+003,2.122151e-001
3.274536e+003,2.131001e-001
3.276465e+003,2.134348e-001
3.278393e+003,2.131757e-001
3.280322e+003,2.128512e-001
3.282250e+003,2.141118e-001
3.284179e+003,2.147591e-001
3.286107e+003,2.150012e-001
3.288036e+003,2.149368e-001
3.289964e+003,2.150639e-001
3.291893e+003,2.149300e-001
3.293821e+003,2.147603e-001
3.295750e+003,2.150169e-001
3.297678e+003,2.144563e-001
3.299606e+003,2.142079e-001
3.301535e+003,2.151719e-001
3.303463e+003,2.160567e-001
3.305392e+003,2.167844e-001
3.307320e+003,2.168364e-001
3.309249e+003,2.165200e-001
3.311177e+003,2.164332e-001
3.313106e+003,2.163696e-001
3.315034e+003,2.160222e-001
3.316963e+003,2.160623e-001
3.318891e+003,2.162575e-001
3.320820e+003,2.170807e-001
3.322748e+003,2.172799e-001
3.324677e+003,2.169623e-001
3.326605e+003,2.169978e-001
3.328533e+003,2.172058e-001
3.330462e+003,2.171816e-001
3.332390e+003,2.169957e-001
3.334319e+003,2.164488e-001
3.336247e+003,2.171735e-001
3.338176e+003,2.178234e-001
3.340104e+003,2.171080e-001
3.342033e+003,2.165258e-001
3.343961e+003,2.166400e-001
3.345890e+003,2.165814e-001
3.347818e+003,2.170440e-001
3.349747e+003,2.173183e-001
3.351675e+003,2.177817e-001
3.353604e+003,2.181010e-001
3.355532e+003,2.175660e-001
3.357460e+003,2.168034e-001
3.359389e+003,2.163630e-001
3.361317e+003,2.154886e-001
3.363246e+003,2.151119e-001
3.365174e+003,2.149352e-001
3.367103e+003,2.145470e-001
3.369031e+003,2.150651e-001
3.370960e+003,2.154417e-001
3.372888e+003,2.156192e-001
3.374817e+003,2.152787e-001
3.376745e+003,2.135360e-001
3.378674e+003,2.126051e-001
3.380602e+003,2.114266e-001
3.382531e+003,2.099753e-001
3.384459e+003,2.095080e-001
3.386387e+003,2.090939e-001
3.388316e+003,2.078325e-001
3.390244e+003,2.076247e-001
3.392173e+003,2.075010e-001
3.394101e+003,2.066923e-001
3.396030e+003,2.055356e-001
3.397958e+003,2.049078e-001
3.399887e+003,2.036732e-001
3.401815e+003,2.025486e-001
3.403744e+003,2.018514e-001
3.405672e+003,2.012838e-001
3.407601e+003,2.000947e-001
3.409529e+003,1.988682e-001
3.411458e+003,1.974426e-001
3.413386e+003,1.953214e-001
3.415314e+003,1.934325e-001
3.417243e+003,1.925492e-001
3.419171e+003,1.912734e-001
3.421100e+003,1.900430e-001
3.423028e+003,1.893536e-001
3.424957e+003,1.878665e-001
3.426885e+003,1.859230e-001
3.428814e+003,1.845281e-001
3.430742e+003,1.823116e-001
3.432671e+003,1.808641e-001
3.434599e+003,1.795274e-001
3.436528e+003,1.782213e-001
3.438456e+003,1.775495e-001
3.440385e+003,1.764495e-001
3.442313e+003,1.752023e-001
3.444241e+003,1.726871e-001
3.446170e+003,1.700259e-001
3.448098e+003,1.692000e-001
3.450027e+003,1.687403e-001
3.451955e+003,1.674428e-001
3.453884e+003,1.656601e-001
3.455812e+003,1.627859e-001
3.457741e+003,1.609031e-001
3.459669e+003,1.604972e-001
3.461598e+003,1.590798e-001
3.463526e+003,1.571570e-001
3.465455e+003,1.559456e-001
3.467383e+003,1.549727e-001
3.469312e+003,1.536713e-001
3.471240e+003,1.529567e-001
3.473168e+003,1.519473e-001
3.475097e+003,1.500910e-001
3.477025e+003,1.483300e-001
3.478954e+003,1.474053e-001
3.480882e+003,1.454874e-001
3.482811e+003,1.435502e-001
3.484739e+003,1.422581e-001
3.486668e+003,1.412141e-001
3.488596e+003,1.395718e-001
3.490525e+003,1.379192e-001
3.492453e+003,1.366193e-001
3.494382e+003,1.347732e-001
3.496310e+003,1.332376e-001
3.498239e+003,1.325711e-001
3.500167e+003,1.308678e-001
3.502095e+003,1.291284e-001
3.504024e+003,1.285300e-001
3.505952e+003,1.272095e-001
3.507881e+003,1.252764e-001
3.509809e+003,1.231647e-001
3.511738e+003,1.215219e-001
3.513666e+003,1.209339e-001
3.515595e+003,1.199008e-001
3.517523e+003,1.179967e-001
3.519452e+003,1.159235e-001
3.521380e+003,1.145104e-001
3.523309e+003,1.133036e-001
3.525237e+003,1.111096e-001
3.527166e+003,1.096521e-001
3.529094e+003,1.093974e-001
3.531022e+003,1.081394e-001
3.532951e+003,1.072703e-001
3.534879e+003,1.057791e-001
3.536808e+003,1.035419e-001
3.538736e+003,1.019086e-001
3.540665e+003,1.004113e-001
3.542593e+003,9.917062e-002
3.544522e+003,9.827138e-002
3.546450e+003,9.602309e-002
3.548379e+003,9.445420e-002
3.550307e+003,9.355362e-002
3.552236e+003,9.253938e-002
3.554164e+003,9.115066e-002
3.556093e+003,8.992774e-002
3.558021e+003,8.899260e-002
3.559949e+003,8.687491e-002
3.561878e+003,8.453932e-002
3.563806e+003,8.332465e-002
3.565735e+003,8.252996e-002
3.567663e+003,8.087381e-002
3.569592e+003,7.933351e-002
3.571520e+003,7.913261e-002
3.573449e+003,7.825778e-002
3.575377e+003,7.666238e-002
3.577306e+003,7.541839e-002
3.579234e+003,7.435612e-002
3.581163e+003,7.320493e-002
3.583091e+003,7.150314e-002
3.585020e+003,6.977904e-002
3.586948e+003,6.867910e-002
3.588876e+003,6.858449e-002
3.590805e+003,6.803291e-002
3.592733e+003,6.643632e-002
3.594662e+003,6.454526e-002
3.596590e+003,6.298079e-002
3.598519e+003,6.211615e-002
3.600447e+003,6.104127e-002
3.602376e+003,5.967919e-002
3.604304e+003,5.839133e-002
3.606233e+003,5.797885e-002
3.608161e+003,5.735605e-002
3.610090e+003,5.592092e-002
3.612018e+003,5.417116e-002
3.613947e+003,5.340450e-002
3.615875e+003,5.257339e-002
3.617803e+003,5.163329e-002
3.619732e+003,5.068275e-002
3.621660e+003,4.913810e-002
3.623589e+003,4.775317e-002
3.625517e+003,4.629946e-002
3.627446e+003,4.508407e-002
3.629374e+003,4.460470e-002
3.631303e+003,4.312072e-002
3.633231e+003,4.134488e-002
3.635160e+003,4.103664e-002
3.637088e+003,3.999504e-002
3.639017e+003,3.866984e-002
3.640945e+003,3.731434e-002
3.642874e+003,3.553982e-002
3.644802e+003,3.461320e-002
3.646730e+003,3.288082e-002
3.648659e+003,3.112774e-002
3.650587e+003,3.031001e-002
3.652516e+003,2.986432e-002
3.654444e+003,2.896402e-002
3.656373e+003,2.734890e-002
3.658301e+003,2.554336e-002
3.660230e+003,2.405679e-002
3.662158e+003,2.305784e-002
3.664087e+003,2.205219e-002
3.666015e+003,2.064195e-002
3.667944e+003,1.966042e-002
3.669872e+003,1.870646e-002
3.671801e+003,1.767165e-002
3.673729e+003,1.681681e-002
3.675657e+003,1.585281e-002
3.677586e+003,1.463306e-002
3.679514e+003,1.337876e-002
3.681443e+003,1.247350e-002
3.683371e+003,1.189168e-002
3.685300e+003,1.169227e-002
3.687228e+003,1.090649e-002
3.689157e+003,9.853338e-003
3.691085e+003,9.584300e-003
3.693014e+003,9.620174e-003
3.694942e+003,8.765539e-003
3.696871e+003,8.205405e-003
3.698799e+003,7.416403e-003
3.700728e+003,7.135531e-003
3.702656e+003,7.240803e-003
3.704584e+003,6.693399e-003
3.706513e+003,5.946435e-003
3.708441e+003,5.994909e-003
3.710370e+003,5.280370e-003
3.712298e+003,4.212248e-003
3.714227e+003,4.446644e-003
3.716155e+003,5.193310e-003
3.718084e+003,4.636422e-003
3.720012e+003,4.392351e-003
3.721941e+003,4.212650e-003
3.723869e+003,4.164943e-003
3.725798e+003,4.017572e-003
3.727726e+003,3.535072e-003
3.729655e+003,3.184162e-003
3.731583e+003,3.114942e-003
3.733511e+003,3.590394e-003
3.735440e+003,3.350917e-003
3.737368e+003,3.179223e-003
3.739297e+003,2.775876e-003
3.741225e+003,2.204460e-003
3.743154e+003,1.908034e-003
3.745082e+003,1.685315e-003
3.747011e+003,2.438907e-003
3.748939e+003,2.607042e-003
3.750868e+003,2.080258e-003
3.752796e+003,2.179284e-003
3.754725e+003,2.303380e-003
3.756653e+003,2.021900e-003
3.758582e+003,1.374219e-003
3.760510e+003,1.121842e-003
3.762438e+003,1.159149e-003
3.764367e+003,9.834043e-004
3.766295e+003,7.664699e-004
3.768224e+003,8.036140e-004
3.770152e+003,7.953152e-004
3.772081e+003,8.197804e-004
3.774009e+003,8.602158e-004
3.775938e+003,7.758303e-004
3.777866e+003,1.263182e-003
3.779795e+003,1.360492e-003
3.781723e+003,7.710837e-004
3.783652e+003,8.620086e-004
3.785580e+003,1.071119e-003
3.787509e+003,1.088026e-003
3.789437e+003,7.701543e-004
3.791365e+003,5.226394e-004
3.793294e+003,2.099880e-004
3.795222e+003,-6.726158e-006
3.797151e+003,2.942637e-004
3.799079e+003,1.052917e-003
3.801008e+003,1.525916e-003
3.802936e+003,1.115829e-003
3.804865e+003,6.343835e-004
3.806793e+003,7.277359e-004
3.808722e+003,6.378014e-004
3.810650e+003,4.451188e-004
3.812579e+003,7.365644e-004
3.814507e+003,6.334544e-004
3.816436e+003,6.809742e-004
3.818364e+003,9.111472e-004
3.820292e+003,4.641245e-004
3.822221e+003,5.683554e-004
3.824149e+003,2.194359e-004
3.826078e+003,-4.941118e-004
3.828006e+003,-6.294217e-004
3.829935e+003,-3.611765e-004
3.831863e+003,2.558701e-004
3.833792e+003,5.353783e-004
3.835720e+003,-8.951895e-005
3.837649e+003,5.397870e-005
3.839577e+003,6.120523e-004
3.841506e+003,4.171776e-005
3.843434e+003,-3.069778e-004
3.845363e+003,1.186361e-004
3.847291e+003,-1.048234e-004
3.849219e+003,-3.178048e-004
3.851148e+003,-1.782575e-005
3.853076e+003,-3.651218e-005
3.855005e+003,-1.174443e-004
3.856933e+003,-6.262786e-004
3.858862e+003,-8.988902e-004
3.860790e+003,-8.027912e-004
3.862719e+003,-3.461128e-004
3.864647e+003,-1.374514e-004
3.866576e+003,-3.582300e-004
3.868504e+003,-2.505867e-004
3.870433e+003,-5.673148e-004
3.872361e+003,-5.510669e-004
3.874290e+003,-5.988823e-004
3.876218e+003,-6.606869e-004
3.878146e+003,-2.719122e-004
3.880075e+003,2.332699e-005
3.882003e+003,-1.039290e-004
3.883932e+003,-5.339580e-004
3.885860e+003,-6.017279e-004
3.887789e+003,-5.129763e-004
3.889717e+003,-1.367889e-004
3.891646e+003,5.205670e-005
3.893574e+003,-4.891473e-004
3.895503e+003,-6.675352e-004
3.897431e+003,-6.092057e-004
3.899360e+003,-4.094762e-004
3.901288e+003,-1.810729e-004
3.903217e+003,-3.958045e-004
3.905145e+003,-3.339290e-004
3.907073e+003,-6.351331e-005
3.909002e+003,-8.165823e-004
3.910930e+003,-1.171893e-003
3.912859e+003,-1.200608e-003
3.914787e+003,-1.327803e-003
3.916716e+003,-8.215761e-004
3.918644e+003,-5.425291e-004
3.920573e+003,-5.576522e-004
3.922501e+003,-2.359828e-004
3.924430e+003,1.181058e-004
3.926358e+003,2.897544e-004
3.928287e+003,6.100405e-005
3.930215e+003,-6.080146e-004
3.932144e+003,-6.797758e-004
3.934072e+003,-4.620733e-004
3.936000e+003,-6.449388e-004
3.937929e+003,-5.493792e-004
3.939857e+003,-1.455334e-004
3.941786e+003,5.991048e-005
3.943714e+003,-5.449118e-004
3.945643e+003,-7.471260e-004
3.947571e+003,-4.249349e-004
3.949500e+003,-6.121836e-004
3.951428e+003,-6.144997e-004
3.953357e+003,-2.670445e-004
3.955285e+003,-7.607205e-004
3.957214e+003,-8.799433e-004
3.959142e+003,-5.304170e-004
3.961071e+003,-1.366233e-004
3.962999e+003,-3.494897e-004
3.964927e+003,-6.247566e-004
3.966856e+003,-6.445418e-004
3.968784e+003,-4.307939e-004
3.970713e+003,-4.029549e-004
3.972641e+003,2.531847e-004
3.974570e+003,3.783898e-004
3.976498e+003,-4.426108e-004
3.978427e+003,-4.439734e-005
3.980355e+003,4.919877e-004
3.982284e+003,4.143399e-004
3.984212e+003,3.386957e-004
3.986141e+003,-2.206167e-004
3.988069e+003,-1.904790e-004
3.989998e+003,1.197298e-004
3.991926e+003,-4.138788e-004
3.993854e+003,-7.625066e-004
3.995783e+003,-7.472583e-004
3.997711e+003,-7.013118e-004
3.999640e+003,-4.912324e-004
4.001568e+003,0.000000e+000
