3.991927e+002,0.000000e+000
4.011211e+002,0.000000e+000
4.030496e+002,0.000000e+000
4.049781e+002,0.000000e+000
4.069065e+002,0.000000e+000
4.088350e+002,0.000000e+000
4.107635e+002,0.000000e+000
4.126919e+002,0.000000e+000
4.146204e+002,0.000000e+000
4.165489e+002,0.000000e+000
4.184773e+002,0.000000e+000
4.204058e+002,0.000000e+000
4.223343e+002,0.000000e+000
4.242627e+002,0.000000e+000
4.261912e+002,0.000000e+000
4.281197e+002,0.000000e+000
4.300481e+002,0.000000e+000
4.319766e+002,0.000000e+000
4.339051e+002,0.000000e+000
4.358335e+002,0.000000e+000
4.377620e+002,0.000000e+000
4.396905e+002,0.000000e+000
4.416189e+002,0.000000e+000
4.435474e+002,0.000000e+000
4.454759e+002,0.000000e+000
4.474043e+002,0.000000e+000
4.493328e+002,0.000000e+000
4.512613e+002,0.000000e+000
4.531897e+002,0.000000e+000
4.551182e+002,0.000000e+000
4.570467e+002,0.000000e+000
4.589751e+002,0.000000e+000
4.609036e+002,0.000000e+000
4.628321e+002,0.000000e+000
4.647605e+002,0.000000e+000
4.666890e+002,0.000000e+000
4.686175e+002,0.000000e+000
4.705459e+002,0.000000e+000
4.724744e+002,0.000000e+000
4.744029e+002,0.000000e+000
4.763313e+002,0.000000e+000
4.782598e+002,0.000000e+000
4.801883e+002,0.000000e+000
4.821167e+002,0.000000e+000
4.840452e+002,0.000000e+000
4.859737e+002,0.000000e+000
4.879021e+002,0.000000e+000
4.898306e+002,0.000000e+000
4.917591e+002,0.000000e+000
4.936875e+002,0.000000e+000
4.956160e+002,0.000000e+000
4.975445e+002,0.000000e+000
4.994729e+002,0.000000e+000
5.014014e+002,0.000000e+000
5.033299e+002,0.000000e+000
5.052583e+002,0.000000e+000
5.071868e+002,0.000000e+000
5.091153e+002,0.000000e+000
5.110437e+002,0.000000e+000
5.129722e+002,0.000000e+000
5.149006e+002,0.000000e+000
5.168291e+002,0.000000e+000
5.187576e+002,0.000000e+000
5.206860e+002,0.000000e+000
5.226145e+002,0.000000e+000
5.245430e+002,0.000000e+000
5.264714e+002,0.000000e+000
5.283999e+002,0.000000e+000
5.303284e+002,0.000000e+000
5.322568e+002,0.000000e+000
5.341853e+002,0.000000e+000
5.361138e+002,0.000000e+000
5.380422e+002,0.000000e+000
5.399707e+002,0.000000e+000
5.418992e+002,0.000000e+000
5.438276e+002,0.000000e+000
5.457561e+002,0.000000e+000
5.476846e+002,0.000000e+000
5.496130e+002,0.000000e+000
5.515415e+002,0.000000e+000
5.534700e+002,0.000000e+000
5.553984e+002,0.000000e+000
5.573269e+002,0.000000e+000
5.592554e+002,0.000000e+000
5.611838e+002,0.000000e+000
5.631123e+002,0.000000e+000
5.650408e+002,0.000000e+000
5.669692e+002,0.000000e+000
5.688977e+002,0.000000e+000
5.708262e+002,0.000000e+000
5.727546e+002,0.000000e+000
5.746831e+002,0.000000e+000
5.766116e+002,0.000000e+000
5.785400e+002,0.000000e+000
5.804685e+002,0.000000e+000
5.823970e+002,0.000000e+000
5.843254e+002,0.000000e+000
5.862539e+002,0.000000e+000
5.881824e+002,0.000000e+000
5.901108e+002,0.000000e+000
5.920393e+002,0.000000e+000
5.939678e+002,0.000000e+000
5.958962e+002,0.000000e+000
5.978247e+002,0.000000e+000
5.997532e+002,0.000000e+000
6.016816e+002,0.000000e+000
6.036101e+002,0.000000e+000
6.055386e+002,0.000000e+000
6.074670e+002,0.000000e+000
6.093955e+002,0.000000e+000
6.113240e+002,0.000000e+000
6.132524e+002,0.000000e+000
6.151809e+002,0.000000e+000
6.171094e+002,0.000000e+000
6.190378e+002,0.000000e+000
6.209663e+002,0.000000e+000
6.228948e+002,0.000000e+000
6.248232e+002,0.000000e+000
6.267517e+002,0.000000e+000
6.286802e+002,0.000000e+000
6.306086e+002,0.000000e+000
6.325371e+002,0.000000e+000
6.344656e+002,0.000000e+000
6.363940e+002,0.000000e+000
6.383225e+002,0.000000e+000
6.402510e+002,0.000000e+000
6.421794e+002,0.000000e+000
6.441079e+002,0.000000e+000
6.460364e+002,0.000000e+000
6.479648e+002,0.000000e+000
6.498933e+002,3.834406e-001
6.518218e+002,3.822625e-001
6.537502e+002,3.790449e-001
6.556787e+002,3.748056e-001
6.576072e+002,3.713619e-001
6.595356e+002,3.694450e-001
6.614641e+002,3.662401e-001
6.633926e+002,3.638418e-001
6.653210e+002,3.613593e-001
6.672495e+002,3.579194e-001
6.691780e+002,3.547324e-001
6.711064e+002,3.518052e-001
6.730349e+002,3.481436e-001
6.749634e+002,3.458146e-001
6.768918e+002,3.449243e-001
6.788203e+002,3.421806e-001
6.807488e+002,3.391921e-001
6.826772e+002,3.361917e-001
6.846057e+002,3.340104e-001
6.865342e+002,3.324823e-001
6.884626e+002,3.313422e-001
6.903911e+002,3.279823e-001
6.923196e+002,3.257832e-001
6.942480e+002,3.238311e-001
6.961765e+002,3.220585e-001
6.981050e+002,3.206603e-001
7.000334e+002,3.197741e-001
7.019619e+002,3.177469e-001
7.038904e+002,3.143605e-001
7.058188e+002,3.119304e-001
7.077473e+002,3.097336e-001
7.096758e+002,3.071526e-001
7.116042e+002,3.045398e-001
7.135327e+002,3.019877e-001
7.154612e+002,3.003363e-001
7.173896e+002,2.969491e-001
7.193181e+002,2.907829e-001
7.212466e+002,2.878484e-001
7.231750e+002,2.874242e-001
7.251035e+002,2.846937e-001
7.270320e+002,2.819136e-001
7.289604e+002,2.806161e-001
7.308889e+002,2.792995e-001
7.328174e+002,2.753272e-001
7.347458e+002,2.723143e-001
7.366743e+002,2.691293e-001
7.386028e+002,2.659187e-001
7.405313e+002,2.626168e-001
7.424597e+002,2.606798e-001
7.443882e+002,2.586972e-001
7.463167e+002,2.568260e-001
7.482451e+002,2.532111e-001
7.501736e+002,2.498716e-001
7.521021e+002,2.466003e-001
7.540305e+002,2.432244e-001
7.559590e+002,2.403167e-001
7.578875e+002,2.393581e-001
7.598159e+002,2.378299e-001
7.617444e+002,2.350462e-001
7.636729e+002,2.318271e-001
7.656013e+002,2.298738e-001
7.675298e+002,2.276450e-001
7.694583e+002,2.252055e-001
7.713867e+002,2.225069e-001
7.733152e+002,2.196478e-001
7.752437e+002,2.171239e-001
7.771721e+002,2.148933e-001
7.791006e+002,2.122220e-001
7.810291e+002,2.096140e-001
7.829575e+002,2.063753e-001
7.848860e+002,2.033966e-001
7.868145e+002,2.010746e-001
7.887429e+002,1.982158e-001
7.906714e+002,1.951252e-001
7.925999e+002,1.918900e-001
7.945283e+002,1.894705e-001
7.964568e+002,1.873053e-001
7.983853e+002,1.849755e-001
8.003137e+002,1.832248e-001
8.022422e+002,1.809320e-001
8.041707e+002,1.782576e-001
8.060991e+002,1.757568e-001
8.080276e+002,1.729777e-001
8.099561e+002,1.707308e-001
8.118845e+002,1.691554e-001
8.138130e+002,1.667631e-001
8.157415e+002,1.637089e-001
8.176699e+002,1.621343e-001
8.195984e+002,1.601486e-001
8.215269e+002,1.582795e-001
8.234553e+002,1.564983e-001
8.253838e+002,1.552526e-001
8.273123e+002,1.541129e-001
8.292407e+002,1.523862e-001
8.311692e+002,1.493657e-001
8.330977e+002,1.466822e-001
8.350261e+002,1.446611e-001
8.369546e+002,1.427952e-001
8.388831e+002,1.408470e-001
8.408115e+002,1.389498e-001
8.427400e+002,1.368327e-001
8.446685e+002,1.342822e-001
8.465969e+002,1.320014e-001
8.485254e+002,1.299202e-001
8.504539e+002,1.275479e-001
8.523823e+002,1.254892e-001
8.543108e+002,1.241341e-001
8.562393e+002,1.232390e-001
8.581677e+002,1.208960e-001
8.600962e+002,1.187991e-001
8.620247e+002,1.177992e-001
8.639531e+002,1.159405e-001
8.658816e+002,1.133533e-001
8.678101e+002,1.104962e-001
8.697385e+002,1.088151e-001
8.716670e+002,1.074293e-001
8.735955e+002,1.055820e-001
8.755239e+002,1.037640e-001
8.774524e+002,1.024946e-001
8.793809e+002,1.006092e-001
8.813093e+002,9.934384e-002
8.832378e+002,9.904706e-002
8.851663e+002,9.694394e-002
8.870947e+002,9.518328e-002
8.890232e+002,9.397006e-002
8.909517e+002,9.290971e-002
8.928801e+002,9.193324e-002
8.948086e+002,9.041302e-002
8.967371e+002,8.914733e-002
8.986655e+002,8.787072e-002
9.005940e+002,8.632982e-002
9.025225e+002,8.458457e-002
9.044509e+002,8.298438e-002
9.063794e+002,8.158481e-002
9.083079e+002,8.065412e-002
9.102363e+002,7.941011e-002
9.121648e+002,7.792664e-002
9.140933e+002,7.656720e-002
9.160217e+002,7.506768e-002
9.179502e+002,7.424552e-002
9.198787e+002,7.357739e-002
9.218071e+002,7.233807e-002
9.237356e+002,7.121014e-002
9.256641e+002,7.034024e-002
9.275925e+002,6.900360e-002
9.295210e+002,6.802428e-002
9.314495e+002,6.722203e-002
9.333779e+002,6.603622e-002
9.353064e+002,6.528947e-002
9.372349e+002,6.457829e-002
9.391633e+002,6.384585e-002
9.410918e+002,6.266611e-002
9.430203e+002,6.181459e-002
9.449487e+002,6.101831e-002
9.468772e+002,6.027655e-002
9.488057e+002,5.958169e-002
9.507341e+002,5.924752e-002
9.526626e+002,5.896980e-002
9.545911e+002,5.837181e-002
9.565195e+002,5.763322e-002
9.584480e+002,5.722807e-002
9.603765e+002,5.615155e-002
9.623049e+002,5.547347e-002
9.642334e+002,5.552433e-002
9.661619e+002,5.534235e-002
9.680903e+002,5.524048e-002
9.700188e+002,5.497536e-002
9.719473e+002,5.437552e-002
9.738757e+002,5.405455e-002
9.758042e+002,5.395321e-002
9.777327e+002,5.372014e-002
9.796611e+002,5.319352e-002
9.815896e+002,5.277685e-002
9.835181e+002,5.245598e-002
9.854465e+002,5.225036e-002
9.873750e+002,5.270845e-002
9.893035e+002,5.241534e-002
9.912319e+002,5.181066e-002
9.931604e+002,5.160038e-002
9.950889e+002,5.179356e-002
9.970173e+002,5.184108e-002
9.989458e+002,5.137487e-002
1.000874e+003,5.116648e-002
1.002803e+003,5.073462e-002
1.004731e+003,5.013491e-002
1.006660e+003,5.016377e-002
1.008588e+003,4.985367e-002
1.010517e+003,5.065426e-002
1.012445e+003,5.159004e-002
1.014374e+003,5.120782e-002
1.016302e+003,5.102981e-002
1.018230e+003,5.120737e-002
1.020159e+003,5.126796e-002
1.022087e+003,5.077141e-002
1.024016e+003,5.065664e-002
1.025944e+003,5.147599e-002
1.027873e+003,5.198429e-002
1.029801e+003,5.219950e-002
1.031730e+003,5.234031e-002
1.033658e+003,5.186591e-002
1.035587e+003,5.168953e-002
1.037515e+003,5.135533e-002
1.039444e+003,5.109860e-002
1.041372e+003,5.112156e-002
1.043301e+003,5.164284e-002
1.045229e+003,5.191882e-002
1.047157e+003,5.155195e-002
1.049086e+003,5.148561e-002
1.051014e+003,5.108631e-002
1.052943e+003,5.096616e-002
1.054871e+003,5.130726e-002
1.056800e+003,5.086609e-002
1.058728e+003,5.025158e-002
1.060657e+003,4.989682e-002
1.062585e+003,4.955519e-002
1.064514e+003,4.925418e-002
1.066442e+003,4.869023e-002
1.068371e+003,4.766268e-002
1.070299e+003,4.713703e-002
1.072228e+003,4.772865e-002
1.074156e+003,4.840930e-002
1.076084e+003,4.867107e-002
1.078013e+003,4.835459e-002
1.079941e+003,4.801706e-002
1.081870e+003,4.821077e-002
1.083798e+003,4.827201e-002
1.085727e+003,4.774873e-002
1.087655e+003,4.678391e-002
1.089584e+003,4.602235e-002
1.091512e+003,4.528191e-002
1.093441e+003,4.527386e-002
1.095369e+003,4.518870e-002
1.097298e+003,4.449522e-002
1.099226e+003,4.371348e-002
1.101155e+003,4.305789e-002
1.103083e+003,4.239649e-002
1.105011e+003,4.188991e-002
1.106940e+003,4.182901e-002
1.108868e+003,4.181438e-002
1.110797e+003,4.162643e-002
1.112725e+003,4.134903e-002
1.114654e+003,4.105642e-002
1.116582e+003,4.086708e-002
1.118511e+003,4.050506e-002
1.120439e+003,4.004224e-002
1.122368e+003,4.070668e-002
1.124296e+003,4.130531e-002
1.126225e+003,4.095442e-002
1.128153e+003,4.029683e-002
1.130082e+003,3.999940e-002
1.132010e+003,4.008755e-002
1.133938e+003,4.007436e-002
1.135867e+003,3.975376e-002
1.137795e+003,4.001953e-002
1.139724e+003,3.965719e-002
1.141652e+003,3.915136e-002
1.143581e+003,3.968910e-002
1.145509e+003,3.991984e-002
1.147438e+003,3.950809e-002
1.149366e+003,3.882152e-002
1.151295e+003,3.862450e-002
1.153223e+003,3.879083e-002
1.155152e+003,3.890041e-002
1.157080e+003,3.860013e-002
1.159009e+003,3.813163e-002
1.160937e+003,3.764958e-002
1.162865e+003,3.749534e-002
1.164794e+003,3.778792e-002
1.166722e+003,3.773992e-002
1.168651e+003,3.749780e-002
1.170579e+003,3.787667e-002
1.172508e+003,3.800532e-002
1.174436e+003,3.788929e-002
1.176365e+003,3.786865e-002
1.178293e+003,3.810638e-002
1.180222e+003,3.833487e-002
1.182150e+003,3.881409e-002
1.184079e+003,3.914386e-002
1.186007e+003,3.868169e-002
1.187936e+003,3.846221e-002
1.189864e+003,3.918168e-002
1.191792e+003,3.964223e-002
1.193721e+003,3.969378e-002
1.195649e+003,4.006505e-002
1.197578e+003,4.035849e-002
1.199506e+003,4.049345e-002
1.201435e+003,4.071691e-002
1.203363e+003,4.093789e-002
1.205292e+003,4.171840e-002
1.207220e+003,4.178509e-002
1.209149e+003,4.161428e-002
1.211077e+003,4.174449e-002
1.213006e+003,4.203344e-002
1.214934e+003,4.186564e-002
1.216863e+003,4.187907e-002
1.218791e+003,4.224692e-002
1.220719e+003,4.243072e-002
1.222648e+003,4.266311e-002
1.224576e+003,4.283955e-002
1.226505e+003,4.294620e-002
1.228433e+003,4.294902e-002
1.230362e+003,4.321719e-002
1.232290e+003,4.363141e-002
1.234219e+003,4.372063e-002
1.236147e+003,4.368351e-002
1.238076e+003,4.365786e-002
1.240004e+003,4.371429e-002
1.241933e+003,4.367201e-002
1.243861e+003,4.409741e-002
1.245790e+003,4.422091e-002
1.247718e+003,4.386693e-002
1.249646e+003,4.338562e-002
1.251575e+003,4.338254e-002
1.253503e+003,4.351471e-002
1.255432e+003,4.392471e-002
1.257360e+003,4.380895e-002
1.259289e+003,4.340257e-002
1.261217e+003,4.293658e-002
1.263146e+003,4.259231e-002
1.265074e+003,4.245180e-002
1.267003e+003,4.293128e-002
1.268931e+003,4.369212e-002
1.270860e+003,4.432023e-002
1.272788e+003,4.478422e-002
1.274717e+003,4.488992e-002
1.276645e+003,4.481658e-002
1.278573e+003,4.498693e-002
1.280502e+003,4.501787e-002
1.282430e+003,4.450437e-002
1.284359e+003,4.412606e-002
1.286287e+003,4.397662e-002
1.288216e+003,4.362262e-002
1.290144e+003,4.338104e-002
1.292073e+003,4.301355e-002
1.294001e+003,4.235437e-002
1.295930e+003,4.190246e-002
1.297858e+003,4.177465e-002
1.299787e+003,4.143600e-002
1.301715e+003,4.086642e-002
1.303644e+003,4.039668e-002
1.305572e+003,4.001063e-002
1.307500e+003,3.963490e-002
1.309429e+003,3.938022e-002
1.311357e+003,3.917772e-002
1.313286e+003,3.889961e-002
1.315214e+003,3.872168e-002
1.317143e+003,3.870520e-002
1.319071e+003,3.850841e-002
1.321000e+003,3.844661e-002
1.322928e+003,3.846742e-002
1.324857e+003,3.819215e-002
1.326785e+003,3.806721e-002
1.328714e+003,3.812356e-002
1.330642e+003,3.824610e-002
1.332571e+003,3.828030e-002
1.334499e+003,3.820945e-002
1.336427e+003,3.793351e-002
1.338356e+003,3.786507e-002
1.340284e+003,3.787580e-002
1.342213e+003,3.785498e-002
1.344141e+003,3.820554e-002
1.346070e+003,3.824013e-002
1.347998e+003,3.830950e-002
1.349927e+003,3.864185e-002
1.351855e+003,3.890591e-002
1.353784e+003,3.906612e-002
1.355712e+003,3.917399e-002
1.357641e+003,3.945990e-002
1.359569e+003,3.983271e-002
1.361498e+003,4.016721e-002
1.363426e+003,4.030279e-002
1.365354e+003,4.036148e-002
1.367283e+003,4.041591e-002
1.369211e+003,4.057788e-002
1.371140e+003,4.042933e-002
1.373068e+003,4.020457e-002
1.374997e+003,4.039493e-002
1.376925e+003,4.044421e-002
1.378854e+003,4.038217e-002
1.380782e+003,4.040518e-002
1.382711e+003,4.036246e-002
1.384639e+003,4.018785e-002
1.386568e+003,4.002461e-002
1.388496e+003,3.986703e-002
1.390425e+003,3.980740e-002
1.392353e+003,3.992613e-002
1.394281e+003,3.959142e-002
1.396210e+003,3.928975e-002
1.398138e+003,3.940384e-002
1.400067e+003,3.943272e-002
1.401995e+003,3.946008e-002
1.403924e+003,3.940765e-002
1.405852e+003,3.937032e-002
1.407781e+003,3.936393e-002
1.409709e+003,3.927321e-002
1.411638e+003,3.914727e-002
1.413566e+003,3.907700e-002
1.415495e+003,3.905586e-002
1.417423e+003,3.903886e-002
1.419352e+003,3.900877e-002
1.421280e+003,3.892697e-002
1.423208e+003,3.891291e-002
1.425137e+003,3.896724e-002
1.427065e+003,3.885439e-002
1.428994e+003,3.876222e-002
1.430922e+003,3.866198e-002
1.432851e+003,3.842264e-002
1.434779e+003,3.837446e-002
1.436708e+003,3.830794e-002
1.438636e+003,3.818850e-002
1.440565e+003,3.805126e-002
1.442493e+003,3.795705e-002
1.444422e+003,3.785964e-002
1.446350e+003,3.784164e-002
1.448279e+003,3.791449e-002
1.450207e+003,3.792505e-002
1.452135e+003,3.769070e-002
1.454064e+003,3.728120e-002
1.455992e+003,3.703334e-002
1.457921e+003,3.709310e-002
1.459849e+003,3.711537e-002
1.461778e+003,3.722072e-002
1.463706e+003,3.715784e-002
1.465635e+003,3.706885e-002
1.467563e+003,3.684037e-002
1.469492e+003,3.647718e-002
1.471420e+003,3.627229e-002
1.473349e+003,3.628233e-002
1.475277e+003,3.621102e-002
1.477206e+003,3.604992e-002
1.479134e+003,3.567149e-002
1.481063e+003,3.540600e-002
1.482991e+003,3.535686e-002
1.484919e+003,3.539644e-002
1.486848e+003,3.539586e-002
1.488776e+003,3.526252e-002
1.490705e+003,3.525091e-002
1.492633e+003,3.537595e-002
1.494562e+003,3.549387e-002
1.496490e+003,3.576574e-002
1.498419e+003,3.618516e-002
1.500347e+003,3.632412e-002
1.502276e+003,3.652648e-002
1.504204e+003,3.697121e-002
1.506133e+003,3.733976e-002
1.508061e+003,3.757576e-002
1.509990e+003,3.800084e-002
1.511918e+003,3.852810e-002
1.513846e+003,3.878362e-002
1.515775e+003,3.890555e-002
1.517703e+003,3.878975e-002
1.519632e+003,3.842120e-002
1.521560e+003,3.818014e-002
1.523489e+003,3.782403e-002
1.525417e+003,3.742488e-002
1.527346e+003,3.698788e-002
1.529274e+003,3.682295e-002
1.531203e+003,3.680369e-002
1.533131e+003,3.714799e-002
1.535060e+003,3.724650e-002
1.536988e+003,3.735178e-002
1.538917e+003,3.791297e-002
1.540845e+003,3.854769e-002
1.542773e+003,3.891001e-002
1.544702e+003,3.927234e-002
1.546630e+003,3.935969e-002
1.548559e+003,3.954198e-002
1.550487e+003,3.996550e-002
1.552416e+003,4.075610e-002
1.554344e+003,4.167814e-002
1.556273e+003,4.255616e-002
1.558201e+003,4.331481e-002
1.560130e+003,4.413160e-002
1.562058e+003,4.527485e-002
1.563987e+003,4.610053e-002
1.565915e+003,4.709684e-002
1.567844e+003,4.805722e-002
1.569772e+003,4.883548e-002
1.571700e+003,4.990087e-002
1.573629e+003,5.106245e-002
1.575557e+003,5.237620e-002
1.577486e+003,5.369746e-002
1.579414e+003,5.499939e-002
1.581343e+003,5.652604e-002
1.583271e+003,5.821031e-002
1.585200e+003,6.021332e-002
1.587128e+003,6.189685e-002
1.589057e+003,6.315190e-002
1.590985e+003,6.491058e-002
1.592914e+003,6.718408e-002
1.594842e+003,6.981398e-002
1.596771e+003,7.218742e-002
1.598699e+003,7.471500e-002
1.600627e+003,7.757857e-002
1.602556e+003,8.033101e-002
1.604484e+003,8.319353e-002
1.606413e+003,8.617621e-002
1.608341e+003,8.926322e-002
1.610270e+003,9.230978e-002
1.612198e+003,9.531741e-002
1.614127e+003,9.818007e-002
1.616055e+003,1.012266e-001
1.617984e+003,1.040359e-001
1.619912e+003,1.066840e-001
1.621841e+003,1.094602e-001
1.623769e+003,1.119050e-001
1.625698e+003,1.141552e-001
1.627626e+003,1.163764e-001
1.629554e+003,1.182026e-001
1.631483e+003,1.197635e-001
1.633411e+003,1.208910e-001
1.635340e+003,1.214333e-001
1.637268e+003,1.215509e-001
1.639197e+003,1.213841e-001
1.641125e+003,1.206035e-001
1.643054e+003,1.196006e-001
1.644982e+003,1.185292e-001
1.646911e+003,1.172499e-001
1.648839e+003,1.156010e-001
1.650768e+003,1.134747e-001
1.652696e+003,1.111961e-001
1.654625e+003,1.087897e-001
1.656553e+003,1.066817e-001
1.658481e+003,1.042424e-001
1.660410e+003,1.016751e-001
1.662338e+003,9.917236e-002
1.664267e+003,9.658563e-002
1.666195e+003,9.409654e-002
1.668124e+003,9.137744e-002
1.670052e+003,8.855164e-002
1.671981e+003,8.606333e-002
1.673909e+003,8.359578e-002
1.675838e+003,8.121007e-002
1.677766e+003,7.898176e-002
1.679695e+003,7.630099e-002
1.681623e+003,7.364251e-002
1.683552e+003,7.134902e-002
1.685480e+003,6.937943e-002
1.687408e+003,6.729209e-002
1.689337e+003,6.532594e-002
1.691265e+003,6.362985e-002
1.693194e+003,6.196777e-002
1.695122e+003,6.001978e-002
1.697051e+003,5.818534e-002
1.698979e+003,5.667287e-002
1.700908e+003,5.480715e-002
1.702836e+003,5.312637e-002
1.704765e+003,5.166441e-002
1.706693e+003,5.054701e-002
1.708622e+003,4.939779e-002
1.710550e+003,4.776456e-002
1.712479e+003,4.619869e-002
1.714407e+003,4.493937e-002
1.716335e+003,4.385982e-002
1.718264e+003,4.257681e-002
1.720192e+003,4.125914e-002
1.722121e+003,3.987513e-002
1.724049e+003,3.833143e-002
1.725978e+003,3.665654e-002
1.727906e+003,3.506549e-002
1.729835e+003,3.331685e-002
1.731763e+003,3.143426e-002
1.733692e+003,2.985285e-002
1.735620e+003,2.826601e-002
1.737549e+003,2.682502e-002
1.739477e+003,2.549687e-002
1.741406e+003,2.421319e-002
1.743334e+003,2.307255e-002
1.745262e+003,2.210887e-002
1.747191e+003,2.114531e-002
1.749119e+003,2.032001e-002
1.751048e+003,1.945825e-002
1.752976e+003,1.865288e-002
1.754905e+003,1.836226e-002
1.756833e+003,1.777626e-002
1.758762e+003,1.710364e-002
1.760690e+003,1.667920e-002
1.762619e+003,1.616404e-002
1.764547e+003,1.571063e-002
1.766476e+003,1.542016e-002
1.768404e+003,1.498440e-002
1.770333e+003,1.475395e-002
1.772261e+003,1.436677e-002
1.774189e+003,1.377276e-002
1.776118e+003,1.330670e-002
1.778046e+003,1.298331e-002
1.779975e+003,1.250746e-002
1.781903e+003,1.202836e-002
1.783832e+003,1.176702e-002
1.785760e+003,1.149319e-002
1.787689e+003,1.137498e-002
1.789617e+003,1.087449e-002
1.791546e+003,1.035920e-002
1.793474e+003,1.026525e-002
1.795403e+003,1.023427e-002
1.797331e+003,9.907166e-003
1.799260e+003,9.638568e-003
1.801188e+003,9.435520e-003
1.803116e+003,9.262419e-003
1.805045e+003,9.228369e-003
1.806973e+003,9.081300e-003
1.808902e+003,8.840434e-003
1.810830e+003,8.868976e-003
1.812759e+003,8.694410e-003
1.814687e+003,8.526504e-003
1.816616e+003,8.399941e-003
1.818544e+003,8.216211e-003
1.820473e+003,8.113571e-003
1.822401e+003,8.032389e-003
1.824330e+003,7.985307e-003
1.826258e+003,7.855224e-003
1.828187e+003,7.702077e-003
1.830115e+003,7.705416e-003
1.832043e+003,7.731420e-003
1.833972e+003,7.662652e-003
1.835900e+003,7.750647e-003
1.837829e+003,7.870812e-003
1.839757e+003,7.773247e-003
1.841686e+003,7.500269e-003
1.843614e+003,7.401708e-003
1.845543e+003,7.407573e-003
1.847471e+003,7.299093e-003
1.849400e+003,7.133982e-003
1.851328e+003,7.393754e-003
1.853257e+003,7.426649e-003
1.855185e+003,7.346033e-003
1.857114e+003,7.341989e-003
1.859042e+003,7.245419e-003
1.860970e+003,7.074502e-003
1.862899e+003,6.970617e-003
1.864827e+003,6.900791e-003
1.866756e+003,7.015334e-003
1.868684e+003,7.198590e-003
1.870613e+003,7.118286e-003
1.872541e+003,7.094844e-003
1.874470e+003,7.086963e-003
1.876398e+003,7.188585e-003
1.878327e+003,7.258828e-003
1.880255e+003,7.232852e-003
1.882183e+003,7.073020e-003
1.884112e+003,6.967957e-003
1.886040e+003,6.861371e-003
1.887969e+003,6.826701e-003
1.889897e+003,6.851206e-003
1.891826e+003,6.977756e-003
1.893754e+003,7.037222e-003
1.895683e+003,7.007218e-003
1.897611e+003,7.016849e-003
1.899540e+003,7.013178e-003
1.901468e+003,7.029410e-003
1.903397e+003,7.051602e-003
1.905325e+003,7.236693e-003
1.907254e+003,7.210145e-003
1.909182e+003,7.068305e-003
1.911110e+003,7.031329e-003
1.913039e+003,7.155944e-003
1.914967e+003,7.201791e-003
1.916896e+003,7.186396e-003
1.918824e+003,7.380913e-003
1.920753e+003,7.599053e-003
1.922681e+003,7.554008e-003
1.924610e+003,7.453817e-003
1.926538e+003,7.532869e-003
1.928467e+003,7.536678e-003
1.930395e+003,7.535802e-003
1.932324e+003,7.563313e-003
1.934252e+003,7.460221e-003
1.936181e+003,7.553468e-003
1.938109e+003,7.633920e-003
1.940037e+003,7.625996e-003
1.941966e+003,7.860589e-003
1.943894e+003,7.851378e-003
1.945823e+003,7.749129e-003
1.947751e+003,7.911909e-003
1.949680e+003,8.142132e-003
1.951608e+003,7.996815e-003
1.953537e+003,7.884814e-003
1.955465e+003,7.984800e-003
1.957394e+003,8.129641e-003
1.959322e+003,8.010754e-003
1.961251e+003,8.047814e-003
1.963179e+003,8.402644e-003
1.965108e+003,8.502344e-003
1.967036e+003,8.500519e-003
1.968964e+003,8.633466e-003
1.970893e+003,8.694748e-003
1.972821e+003,8.938611e-003
1.974750e+003,9.011946e-003
1.976678e+003,8.980723e-003
1.978607e+003,9.159870e-003
1.980535e+003,9.092737e-003
1.982464e+003,9.013164e-003
1.984392e+003,9.079372e-003
1.986321e+003,9.109586e-003
1.988249e+003,9.128773e-003
1.990178e+003,9.332796e-003
1.992106e+003,9.474056e-003
1.994035e+003,9.601407e-003
1.995963e+003,9.623764e-003
1.997891e+003,9.685491e-003
1.999820e+003,9.753361e-003
2.001748e+003,9.980393e-003
2.003677e+003,1.022969e-002
2.005605e+003,1.020880e-002
2.007534e+003,1.019377e-002
2.009462e+003,1.017956e-002
2.011391e+003,1.010728e-002
2.013319e+003,1.027692e-002
2.015248e+003,1.048752e-002
2.017176e+003,1.042670e-002
2.019105e+003,1.036884e-002
2.021033e+003,1.056472e-002
2.022962e+003,1.079180e-002
2.024890e+003,1.080209e-002
2.026818e+003,1.088662e-002
2.028747e+003,1.100476e-002
2.030675e+003,1.095447e-002
2.032604e+003,1.098512e-002
2.034532e+003,1.115803e-002
2.036461e+003,1.132369e-002
2.038389e+003,1.151384e-002
2.040318e+003,1.146975e-002
2.042246e+003,1.142610e-002
2.044175e+003,1.152575e-002
2.046103e+003,1.181605e-002
2.048032e+003,1.183907e-002
2.049960e+003,1.178462e-002
2.051889e+003,1.186910e-002
2.053817e+003,1.201786e-002
2.055746e+003,1.213025e-002
2.057674e+003,1.212538e-002
2.059603e+003,1.205588e-002
2.061531e+003,1.209138e-002
2.063459e+003,1.221544e-002
2.065388e+003,1.223449e-002
2.067316e+003,1.209485e-002
2.069245e+003,1.218777e-002
2.071173e+003,1.234749e-002
2.073102e+003,1.231064e-002
2.075030e+003,1.250365e-002
2.076959e+003,1.247531e-002
2.078887e+003,1.261111e-002
2.080816e+003,1.301018e-002
2.082744e+003,1.298396e-002
2.084673e+003,1.270001e-002
2.086601e+003,1.277620e-002
2.088530e+003,1.291876e-002
2.090458e+003,1.282712e-002
2.092386e+003,1.258325e-002
2.094315e+003,1.273642e-002
2.096243e+003,1.313690e-002
2.098172e+003,1.312908e-002
2.100100e+003,1.295191e-002
2.102029e+003,1.311754e-002
2.103957e+003,1.312836e-002
2.105886e+003,1.287200e-002
2.107814e+003,1.286480e-002
2.109743e+003,1.302203e-002
2.111671e+003,1.324360e-002
2.113600e+003,1.327390e-002
2.115528e+003,1.318168e-002
2.117457e+003,1.325071e-002
2.119385e+003,1.337678e-002
2.121313e+003,1.324962e-002
2.123242e+003,1.314202e-002
2.125170e+003,1.320890e-002
2.127099e+003,1.314923e-002
2.129027e+003,1.285562e-002
2.130956e+003,1.283708e-002
2.132884e+003,1.304805e-002
2.134813e+003,1.317836e-002
2.136741e+003,1.298888e-002
2.138670e+003,1.290937e-002
2.140598e+003,1.286842e-002
2.142527e+003,1.287074e-002
2.144455e+003,1.273232e-002
2.146384e+003,1.271274e-002
2.148312e+003,1.288439e-002
2.150240e+003,1.278603e-002
2.152169e+003,1.253942e-002
2.154097e+003,1.252462e-002
2.156026e+003,1.236999e-002
2.157954e+003,1.246037e-002
2.159883e+003,1.262895e-002
2.161811e+003,1.240060e-002
2.163740e+003,1.208344e-002
2.165668e+003,1.207451e-002
2.167597e+003,1.190203e-002
2.169525e+003,1.193925e-002
2.171454e+003,1.220328e-002
2.173382e+003,1.199542e-002
2.175311e+003,1.176137e-002
2.177239e+003,1.165170e-002
2.179167e+003,1.149765e-002
2.181096e+003,1.134746e-002
2.183024e+003,1.134324e-002
2.184953e+003,1.151857e-002
2.186881e+003,1.148261e-002
2.188810e+003,1.140518e-002
2.190738e+003,1.126472e-002
2.192667e+003,1.091101e-002
2.194595e+003,1.076765e-002
2.196524e+003,1.071331e-002
2.198452e+003,1.048892e-002
2.200381e+003,1.037111e-002
2.202309e+003,1.052001e-002
2.204238e+003,1.052934e-002
2.206166e+003,1.039117e-002
2.208094e+003,1.032561e-002
2.210023e+003,1.019153e-002
2.211951e+003,1.001243e-002
2.213880e+003,1.001443e-002
2.215808e+003,1.011437e-002
2.217737e+003,9.971747e-003
2.219665e+003,9.828663e-003
2.221594e+003,9.871066e-003
2.223522e+003,9.971375e-003
2.225451e+003,9.604862e-003
2.227379e+003,9.370679e-003
2.229308e+003,9.418217e-003
2.231236e+003,9.488516e-003
2.233165e+003,9.203188e-003
2.235093e+003,8.857139e-003
2.237021e+003,8.803949e-003
2.238950e+003,8.853385e-003
2.240878e+003,8.736769e-003
2.242807e+003,8.556343e-003
2.244735e+003,8.366398e-003
2.246664e+003,8.285404e-003
2.248592e+003,8.202670e-003
2.250521e+003,8.137777e-003
2.252449e+003,8.263386e-003
2.254378e+003,8.099156e-003
2.256306e+003,7.816358e-003
2.258235e+003,7.737559e-003
2.260163e+003,7.740426e-003
2.262092e+003,7.658234e-003
2.264020e+003,7.533408e-003
2.265948e+003,7.495313e-003
2.267877e+003,7.483042e-003
2.269805e+003,7.373971e-003
2.271734e+003,7.342394e-003
2.273662e+003,7.255392e-003
2.275591e+003,7.133173e-003
2.277519e+003,7.256065e-003
2.279448e+003,7.086593e-003
2.281376e+003,6.868104e-003
2.283305e+003,7.024089e-003
2.285233e+003,7.048234e-003
2.287162e+003,6.884464e-003
2.289090e+003,6.669509e-003
2.291019e+003,6.512238e-003
2.292947e+003,6.488055e-003
2.294875e+003,6.508471e-003
2.296804e+003,6.517216e-003
2.298732e+003,6.391237e-003
2.300661e+003,6.325034e-003
2.302589e+003,6.335625e-003
2.304518e+003,6.272153e-003
2.306446e+003,6.170074e-003
2.308375e+003,6.058240e-003
2.310303e+003,5.931958e-003
2.312232e+003,5.922889e-003
2.314160e+003,5.937635e-003
2.316089e+003,6.060189e-003
2.318017e+003,5.913988e-003
2.319946e+003,5.733790e-003
2.321874e+003,5.827103e-003
2.323802e+003,5.881274e-003
2.325731e+003,5.851652e-003
2.327659e+003,6.003879e-003
2.329588e+003,5.900855e-003
2.331516e+003,5.671514e-003
2.333445e+003,5.506954e-003
2.335373e+003,5.427733e-003
2.337302e+003,5.442731e-003
2.339230e+003,5.415252e-003
2.341159e+003,5.371573e-003
2.343087e+003,5.333801e-003
2.345016e+003,5.326019e-003
2.346944e+003,5.212558e-003
2.348873e+003,5.105933e-003
2.350801e+003,5.041736e-003
2.352729e+003,4.837038e-003
2.354658e+003,4.775192e-003
2.356586e+003,4.846621e-003
2.358515e+003,4.669779e-003
2.360443e+003,4.559570e-003
2.362372e+003,4.471684e-003
2.364300e+003,4.389539e-003
2.366229e+003,4.459164e-003
2.368157e+003,4.260998e-003
2.370086e+003,4.135538e-003
2.372014e+003,4.115869e-003
2.373943e+003,4.143901e-003
2.375871e+003,4.098108e-003
2.377800e+003,3.951396e-003
2.379728e+003,3.777024e-003
2.381656e+003,3.816933e-003
2.383585e+003,3.773548e-003
2.385513e+003,3.826159e-003
2.387442e+003,3.862195e-003
2.389370e+003,3.618759e-003
2.391299e+003,3.452203e-003
2.393227e+003,3.352720e-003
2.395156e+003,3.210031e-003
2.397084e+003,3.273624e-003
2.399013e+003,3.262507e-003
2.400941e+003,3.238004e-003
2.402870e+003,3.037525e-003
2.404798e+003,3.063919e-003
2.406727e+003,3.422880e-003
2.408655e+003,3.460018e-003
2.410583e+003,3.298597e-003
2.412512e+003,3.410623e-003
2.414440e+003,3.293489e-003
2.416369e+003,3.101794e-003
2.418297e+003,3.114308e-003
2.420226e+003,3.121884e-003
2.422154e+003,3.200618e-003
2.424083e+003,3.212902e-003
2.426011e+003,3.114575e-003
2.427940e+003,2.821463e-003
2.429868e+003,2.890536e-003
2.431797e+003,2.980805e-003
2.433725e+003,3.201386e-003
2.435654e+003,3.180090e-003
2.437582e+003,2.874826e-003
2.439510e+003,2.781678e-003
2.441439e+003,2.700753e-003
2.443367e+003,2.546446e-003
2.445296e+003,2.542113e-003
2.447224e+003,2.690751e-003
2.449153e+003,2.831502e-003
2.451081e+003,2.795151e-003
2.453010e+003,2.702587e-003
2.454938e+003,2.707254e-003
2.456867e+003,2.696985e-003
2.458795e+003,2.382066e-003
2.460724e+003,2.302314e-003
2.462652e+003,2.324999e-003
2.464581e+003,2.315971e-003
2.466509e+003,2.106095e-003
2.468438e+003,1.822347e-003
2.470366e+003,2.039876e-003
2.472294e+003,2.365141e-003
2.474223e+003,2.324332e-003
2.476151e+003,2.263376e-003
2.478080e+003,2.221011e-003
2.480008e+003,2.119913e-003
2.481937e+003,1.983919e-003
2.483865e+003,1.956359e-003
2.485794e+003,1.998964e-003
2.487722e+003,2.291988e-003
2.489651e+003,2.526083e-003
2.491579e+003,2.417616e-003
2.493508e+003,2.103298e-003
2.495436e+003,2.146384e-003
2.497365e+003,2.357146e-003
2.499293e+003,2.009184e-003
2.501221e+003,1.995769e-003
2.503150e+003,2.202062e-003
2.505078e+003,2.161268e-003
2.507007e+003,2.006620e-003
2.508935e+003,2.018338e-003
2.510864e+003,1.965446e-003
2.512792e+003,1.893058e-003
2.514721e+003,1.908367e-003
2.516649e+003,1.729291e-003
2.518578e+003,1.564156e-003
2.520506e+003,1.501843e-003
2.522435e+003,1.611312e-003
2.524363e+003,1.864639e-003
2.526292e+003,1.868200e-003
2.528220e+003,1.802915e-003
2.530148e+003,1.815991e-003
2.532077e+003,2.043871e-003
2.534005e+003,2.127437e-003
2.535934e+003,2.056688e-003
2.537862e+003,2.003525e-003
2.539791e+003,1.668651e-003
2.541719e+003,1.670746e-003
2.543648e+003,1.752944e-003
2.545576e+003,1.867767e-003
2.547505e+003,2.033517e-003
2.549433e+003,2.141556e-003
2.551362e+003,1.937521e-003
2.553290e+003,1.731952e-003
2.555219e+003,1.852760e-003
2.557147e+003,1.849033e-003
2.559075e+003,1.827338e-003
2.561004e+003,1.881012e-003
2.562932e+003,1.996335e-003
2.564861e+003,2.077695e-003
2.566789e+003,1.955061e-003
2.568718e+003,1.631965e-003
2.570646e+003,1.525716e-003
2.572575e+003,1.650158e-003
2.574503e+003,1.549724e-003
2.576432e+003,1.422319e-003
2.578360e+003,1.516838e-003
2.580289e+003,1.563424e-003
2.582217e+003,1.656910e-003
2.584146e+003,1.645069e-003
2.586074e+003,1.517503e-003
2.588002e+003,1.390673e-003
2.589931e+003,1.330280e-003
2.591859e+003,1.590327e-003
2.593788e+003,1.879148e-003
2.595716e+003,1.880745e-003
2.597645e+003,1.872027e-003
2.599573e+003,1.790272e-003
2.601502e+003,1.631233e-003
2.603430e+003,1.703411e-003
2.605359e+003,1.789307e-003
2.607287e+003,1.991142e-003
2.609216e+003,1.965679e-003
2.611144e+003,1.788509e-003
2.613073e+003,1.657508e-003
2.615001e+003,1.683053e-003
2.616929e+003,1.944277e-003
2.618858e+003,2.132033e-003
2.620786e+003,1.863741e-003
2.622715e+003,1.570840e-003
2.624643e+003,1.457192e-003
2.626572e+003,1.528908e-003
2.628500e+003,1.717914e-003
2.630429e+003,1.685448e-003
2.632357e+003,1.470058e-003
2.634286e+003,1.612609e-003
2.636214e+003,1.754075e-003
2.638143e+003,1.818687e-003
2.640071e+003,1.890795e-003
2.642000e+003,1.901378e-003
2.643928e+003,1.891161e-003
2.645856e+003,1.843210e-003
2.647785e+003,1.792535e-003
2.649713e+003,1.906071e-003
2.651642e+003,1.954262e-003
2.653570e+003,1.749684e-003
2.655499e+003,1.624615e-003
2.657427e+003,1.754508e-003
2.659356e+003,1.707669e-003
2.661284e+003,1.572935e-003
2.663213e+003,1.630335e-003
2.665141e+003,1.895321e-003
2.667070e+003,1.858117e-003
2.668998e+003,1.645069e-003
2.670927e+003,1.748419e-003
2.672855e+003,1.843509e-003
2.674783e+003,1.912028e-003
2.676712e+003,2.002559e-003
2.678640e+003,2.304446e-003
2.680569e+003,2.394060e-003
2.682497e+003,2.111589e-003
2.684426e+003,1.827338e-003
2.686354e+003,1.732917e-003
2.688283e+003,2.165031e-003
2.690211e+003,2.263809e-003
2.692140e+003,2.106827e-003
2.694068e+003,2.303413e-003
2.695997e+003,2.180116e-003
2.697925e+003,1.921213e-003
2.699854e+003,2.112687e-003
2.701782e+003,2.413951e-003
2.703710e+003,2.516351e-003
2.705639e+003,2.243292e-003
2.707567e+003,2.127304e-003
2.709496e+003,2.294120e-003
2.711424e+003,2.286325e-003
2.713353e+003,2.244391e-003
2.715281e+003,2.275267e-003
2.717210e+003,2.380000e-003
2.719138e+003,2.395592e-003
2.721067e+003,2.390295e-003
2.722995e+003,2.608276e-003
2.724924e+003,2.748533e-003
2.726852e+003,2.852980e-003
2.728781e+003,2.724926e-003
2.730709e+003,2.698219e-003
2.732637e+003,3.052373e-003
2.734566e+003,2.972465e-003
2.736494e+003,2.936970e-003
2.738423e+003,2.925694e-003
2.740351e+003,2.832936e-003
2.742280e+003,2.971864e-003
2.744208e+003,3.353722e-003
2.746137e+003,3.738589e-003
2.748065e+003,3.518203e-003
2.749994e+003,3.175785e-003
2.751922e+003,3.431596e-003
2.753851e+003,3.726791e-003
2.755779e+003,4.052989e-003
2.757708e+003,4.107440e-003
2.759636e+003,4.094328e-003
2.761564e+003,3.922942e-003
2.763493e+003,3.593234e-003
2.765421e+003,3.456478e-003
2.767350e+003,3.596608e-003
2.769278e+003,3.771108e-003
2.771207e+003,4.015733e-003
2.773135e+003,4.400585e-003
2.775064e+003,4.515139e-003
2.776992e+003,4.364470e-003
2.778921e+003,4.254641e-003
2.780849e+003,4.212114e-003
2.782778e+003,4.540016e-003
2.784706e+003,4.761558e-003
2.786635e+003,4.719618e-003
2.788563e+003,4.856404e-003
2.790491e+003,4.777437e-003
2.792420e+003,4.647641e-003
2.794348e+003,4.780284e-003
2.796277e+003,5.076230e-003
2.798205e+003,5.081058e-003
2.800134e+003,5.274433e-003
2.802062e+003,5.525343e-003
2.803991e+003,5.816425e-003
2.805919e+003,5.919127e-003
2.807848e+003,5.887353e-003
2.809776e+003,6.175552e-003
2.811705e+003,6.356874e-003
2.813633e+003,6.448236e-003
2.815562e+003,6.358858e-003
2.817490e+003,6.687207e-003
2.819418e+003,6.838045e-003
2.821347e+003,6.865815e-003
2.823275e+003,6.915772e-003
2.825204e+003,6.988463e-003
2.827132e+003,7.025233e-003
2.829061e+003,7.533138e-003
2.830989e+003,7.923686e-003
2.832918e+003,7.931919e-003
2.834846e+003,7.935159e-003
2.836775e+003,8.142808e-003
2.838703e+003,8.399671e-003
2.840632e+003,8.537013e-003
2.842560e+003,8.740859e-003
2.844489e+003,8.944835e-003
2.846417e+003,9.140548e-003
2.848345e+003,9.250538e-003
2.850274e+003,9.074500e-003
2.852202e+003,9.073756e-003
2.854131e+003,9.281510e-003
2.856059e+003,9.279377e-003
2.857988e+003,9.705956e-003
2.859916e+003,1.011942e-002
2.861845e+003,1.064363e-002
2.863773e+003,1.124683e-002
2.865702e+003,1.156866e-002
2.867630e+003,1.151248e-002
2.869558e+003,1.154276e-002
2.871487e+003,1.215407e-002
2.873415e+003,1.268702e-002
2.875344e+003,1.285384e-002
2.877272e+003,1.302999e-002
2.879201e+003,1.358510e-002
2.881129e+003,1.372409e-002
2.883058e+003,1.382194e-002
2.884986e+003,1.425821e-002
2.886915e+003,1.447552e-002
2.888843e+003,1.441006e-002
2.890771e+003,1.423110e-002
2.892700e+003,1.442647e-002
2.894628e+003,1.504751e-002
2.896557e+003,1.511464e-002
2.898485e+003,1.540550e-002
2.900414e+003,1.618319e-002
2.902342e+003,1.660628e-002
2.904271e+003,1.694354e-002
2.906199e+003,1.744412e-002
2.908128e+003,1.746274e-002
2.910056e+003,1.756475e-002
2.911985e+003,1.776936e-002
2.913913e+003,1.813613e-002
2.915842e+003,1.846369e-002
2.917770e+003,1.847966e-002
2.919698e+003,1.872887e-002
2.921627e+003,1.889004e-002
2.923555e+003,1.904297e-002
2.925484e+003,1.967481e-002
2.927412e+003,2.040914e-002
2.929341e+003,2.121340e-002
2.931269e+003,2.156930e-002
2.933198e+003,2.159775e-002
2.935126e+003,2.213174e-002
2.937055e+003,2.309928e-002
2.938983e+003,2.340770e-002
2.940912e+003,2.330239e-002
2.942840e+003,2.342757e-002
2.944769e+003,2.395304e-002
2.946697e+003,2.438286e-002
2.948625e+003,2.487247e-002
2.950554e+003,2.580232e-002
2.952482e+003,2.627452e-002
2.954411e+003,2.626657e-002
2.956339e+003,2.624735e-002
2.958268e+003,2.705664e-002
2.960196e+003,2.738864e-002
2.962125e+003,2.738998e-002
2.964053e+003,2.792101e-002
2.965982e+003,2.841116e-002
2.967910e+003,2.887591e-002
2.969839e+003,2.958214e-002
2.971767e+003,3.051709e-002
2.973696e+003,3.118431e-002
2.975624e+003,3.175814e-002
2.977552e+003,3.260160e-002
2.979481e+003,3.360162e-002
2.981409e+003,3.423336e-002
2.983338e+003,3.455701e-002
2.985266e+003,3.520222e-002
2.987195e+003,3.580784e-002
2.989123e+003,3.632664e-002
2.991052e+003,3.684979e-002
2.992980e+003,3.700776e-002
2.994909e+003,3.788943e-002
2.996837e+003,3.915390e-002
2.998766e+003,3.963537e-002
3.000694e+003,3.974069e-002
3.002623e+003,4.019887e-002
3.004551e+003,4.094306e-002
3.006479e+003,4.162333e-002
3.008408e+003,4.234809e-002
3.010336e+003,4.320225e-002
3.012265e+003,4.406125e-002
3.014193e+003,4.484325e-002
3.016122e+003,4.560838e-002
3.018050e+003,4.635697e-002
3.019979e+003,4.696798e-002
3.021907e+003,4.764381e-002
3.023836e+003,4.840482e-002
3.025764e+003,4.931193e-002
3.027693e+003,5.052743e-002
3.029621e+003,5.177527e-002
3.031550e+003,5.268567e-002
3.033478e+003,5.377256e-002
3.035406e+003,5.503745e-002
3.037335e+003,5.581481e-002
3.039263e+003,5.664501e-002
3.041192e+003,5.813840e-002
3.043120e+003,5.926795e-002
3.045049e+003,6.015973e-002
3.046977e+003,6.077936e-002
3.048906e+003,6.202869e-002
3.050834e+003,6.360523e-002
3.052763e+003,6.477113e-002
3.054691e+003,6.573590e-002
3.056620e+003,6.654942e-002
3.058548e+003,6.769787e-002
3.060477e+003,6.911439e-002
3.062405e+003,7.072447e-002
3.064333e+003,7.183257e-002
3.066262e+003,7.267336e-002
3.068190e+003,7.370058e-002
3.070119e+003,7.528880e-002
3.072047e+003,7.659835e-002
3.073976e+003,7.773738e-002
3.075904e+003,7.961564e-002
3.077833e+003,8.112147e-002
3.079761e+003,8.226127e-002
3.081690e+003,8.331618e-002
3.083618e+003,8.450579e-002
3.085547e+003,8.606426e-002
3.087475e+003,8.803406e-002
3.089404e+003,8.976470e-002
3.091332e+003,9.127681e-002
3.093260e+003,9.242028e-002
3.095189e+003,9.409156e-002
3.097117e+003,9.616596e-002
3.099046e+003,9.801777e-002
3.100974e+003,9.948415e-002
3.102903e+003,1.011488e-001
3.104831e+003,1.028960e-001
3.106760e+003,1.046465e-001
3.108688e+003,1.061316e-001
3.110617e+003,1.076521e-001
3.112545e+003,1.094454e-001
3.114474e+003,1.110080e-001
3.116402e+003,1.130117e-001
3.118331e+003,1.153177e-001
3.120259e+003,1.168526e-001
3.122188e+003,1.185722e-001
3.124116e+003,1.205676e-001
3.126044e+003,1.221562e-001
3.127973e+003,1.242039e-001
3.129901e+003,1.262133e-001
3.131830e+003,1.276862e-001
3.133758e+003,1.297484e-001
3.135687e+003,1.321486e-001
3.137615e+003,1.342818e-001
3.139544e+003,1.362396e-001
3.141472e+003,1.376447e-001
3.143401e+003,1.392642e-001
3.145329e+003,1.414340e-001
3.147258e+003,1.430551e-001
3.149186e+003,1.448322e-001
3.151115e+003,1.473318e-001
3.153043e+003,1.494176e-001
3.154971e+003,1.511550e-001
3.156900e+003,1.534597e-001
3.158828e+003,1.557132e-001
3.160757e+003,1.574937e-001
3.162685e+003,1.593703e-001
3.164614e+003,1.613176e-001
3.166542e+003,1.631556e-001
3.168471e+003,1.647655e-001
3.170399e+003,1.666552e-001
3.172328e+003,1.690081e-001
3.174256e+003,1.709928e-001
3.176185e+003,1.722542e-001
3.178113e+003,1.741400e-001
3.180042e+003,1.767135e-001
3.181970e+003,1.788660e-001
3.183898e+003,1.807820e-001
3.185827e+003,1.826705e-001
3.187755e+003,1.842666e-001
3.189684e+003,1.857167e-001
3.191612e+003,1.872031e-001
3.193541e+003,1.887808e-001
3.195469e+003,1.902764e-001
3.197398e+003,1.921770e-001
3.199326e+003,1.941879e-001
3.201255e+003,1.958036e-001
3.203183e+003,1.976731e-001
3.205112e+003,1.994638e-001
3.207040e+003,2.001848e-001
3.208969e+003,2.011939e-001
3.210897e+003,2.034943e-001
3.212825e+003,2.047792e-001
3.214754e+003,2.056276e-001
3.216682e+003,2.065317e-001
3.218611e+003,2.074063e-001
3.220539e+003,2.092623e-001
3.222468e+003,2.108925e-001
3.224396e+003,2.114920e-001
3.226325e+003,2.122190e-001
3.228253e+003,2.132741e-001
3.230182e+003,2.137929e-001
3.232110e+003,2.145772e-001
3.234039e+003,2.157424e-001
3.235967e+003,2.170596e-001
3.237896e+003,2.174411e-001
3.239824e+003,2.182714e-001
3.241752e+003,2.192291e-001
3.243681e+003,2.196696e-001
3.245609e+003,2.198166e-001
3.247538e+003,2.198120e-001
3.249466e+003,2.206249e-001
3.251395e+003,2.214683e-001
3.253323e+003,2.217443e-001
3.255252e+003,2.216298e-001
3.257180e+003,2.217978e-001
3.259109e+003,2.225376e-001
3.261037e+003,2.239353e-001
3.262966e+003,2.242326e-001
3.264894e+003,2.228409e-001
3.266823e+003,2.229540e-001
3.268751e+003,2.242135e-001
3.270679e+003,2.246115e-001
3.272608e+003,2.251340e-001
3.274536e+003,2.251339e-001
3.276465e+003,2.243716e-001
3.278393e+003,2.244287e-001
3.280322e+003,2.255440e-001
3.282250e+003,2.261674e-001
3.284179e+003,2.256640e-001
3.286107e+003,2.253915e-001
3.288036e+003,2.259730e-001
3.289964e+003,2.266715e-001
3.291893e+003,2.260558e-001
3.293821e+003,2.266049e-001
3.295750e+003,2.275881e-001
3.297678e+003,2.271950e-001
3.299606e+003,2.275556e-001
3.301535e+003,2.288797e-001
3.303463e+003,2.288752e-001
3.305392e+003,2.289035e-001
3.307320e+003,2.291852e-001
3.309249e+003,2.290919e-001
3.311177e+003,2.291237e-001
3.313106e+003,2.291702e-001
3.315034e+003,2.281718e-001
3.316963e+003,2.282455e-001
3.318891e+003,2.288844e-001
3.320820e+003,2.291399e-001
3.322748e+003,2.296329e-001
3.324677e+003,2.298595e-001
3.326605e+003,2.293675e-001
3.328533e+003,2.293351e-001
3.330462e+003,2.300209e-001
3.332390e+003,2.306851e-001
3.334319e+003,2.309081e-001
3.336247e+003,2.301492e-001
3.338176e+003,2.297100e-001
3.340104e+003,2.296932e-001
3.342033e+003,2.301949e-001
3.343961e+003,2.299252e-001
3.345890e+003,2.295477e-001
3.347818e+003,2.294498e-001
3.349747e+003,2.291166e-001
3.351675e+003,2.294663e-001
3.353604e+003,2.297225e-001
3.355532e+003,2.291459e-001
3.357460e+003,2.288396e-001
3.359389e+003,2.278190e-001
3.361317e+003,2.281812e-001
3.363246e+003,2.286986e-001
3.365174e+003,2.279214e-001
3.367103e+003,2.277330e-001
3.369031e+003,2.278061e-001
3.370960e+003,2.273143e-001
3.372888e+003,2.263018e-001
3.374817e+003,2.260720e-001
3.376745e+003,2.253686e-001
3.378674e+003,2.235770e-001
3.380602e+003,2.234487e-001
3.382531e+003,2.234155e-001
3.384459e+003,2.223570e-001
3.386387e+003,2.208654e-001
3.388316e+003,2.196244e-001
3.390244e+003,2.189956e-001
3.392173e+003,2.192038e-001
3.394101e+003,2.181963e-001
3.396030e+003,2.164859e-001
3.397958e+003,2.160544e-001
3.399887e+003,2.147054e-001
3.401815e+003,2.132365e-001
3.403744e+003,2.123771e-001
3.405672e+003,2.119041e-001
3.407601e+003,2.105628e-001
3.409529e+003,2.094757e-001
3.411458e+003,2.067092e-001
3.413386e+003,2.047262e-001
3.415314e+003,2.043057e-001
3.417243e+003,2.034888e-001
3.419171e+003,2.027622e-001
3.421100e+003,2.014920e-001
3.423028e+003,1.997279e-001
3.424957e+003,1.976241e-001
3.426885e+003,1.958430e-001
3.428814e+003,1.947250e-001
3.430742e+003,1.936712e-001
3.432671e+003,1.918344e-001
3.434599e+003,1.903492e-001
3.436528e+003,1.900245e-001
3.438456e+003,1.885394e-001
3.440385e+003,1.869107e-001
3.442313e+003,1.849907e-001
3.444241e+003,1.830953e-001
3.446170e+003,1.807517e-001
3.448098e+003,1.790768e-001
3.450027e+003,1.779766e-001
3.451955e+003,1.770334e-001
3.453884e+003,1.748544e-001
3.455812e+003,1.721981e-001
3.457741e+003,1.714282e-001
3.459669e+003,1.712089e-001
3.461598e+003,1.700318e-001
3.463526e+003,1.679751e-001
3.465455e+003,1.658003e-001
3.467383e+003,1.638232e-001
3.469312e+003,1.626414e-001
3.471240e+003,1.616677e-001
3.473168e+003,1.592730e-001
3.475097e+003,1.571831e-001
3.477025e+003,1.561133e-001
3.478954e+003,1.551002e-001
3.480882e+003,1.531414e-001
3.482811e+003,1.511304e-001
3.484739e+003,1.493333e-001
3.486668e+003,1.472629e-001
3.488596e+003,1.454486e-001
3.490525e+003,1.435868e-001
3.492453e+003,1.423740e-001
3.494382e+003,1.417492e-001
3.496310e+003,1.411061e-001
3.498239e+003,1.387268e-001
3.500167e+003,1.365235e-001
3.502095e+003,1.359018e-001
3.504024e+003,1.348940e-001
3.505952e+003,1.335845e-001
3.507881e+003,1.323213e-001
3.509809e+003,1.300108e-001
3.511738e+003,1.275614e-001
3.513666e+003,1.264207e-001
3.515595e+003,1.250256e-001
3.517523e+003,1.239003e-001
3.519452e+003,1.221984e-001
3.521380e+003,1.204872e-001
3.523309e+003,1.182681e-001
3.525237e+003,1.169316e-001
3.527166e+003,1.157706e-001
3.529094e+003,1.139447e-001
3.531022e+003,1.127712e-001
3.532951e+003,1.121622e-001
3.534879e+003,1.108087e-001
3.536808e+003,1.082409e-001
3.538736e+003,1.061099e-001
3.540665e+003,1.052338e-001
3.542593e+003,1.041769e-001
3.544522e+003,1.022438e-001
3.546450e+003,1.007166e-001
3.548379e+003,9.985486e-002
3.550307e+003,9.803052e-002
3.552236e+003,9.591325e-002
3.554164e+003,9.389619e-002
3.556093e+003,9.154284e-002
3.558021e+003,9.013128e-002
3.559949e+003,8.990275e-002
3.561878e+003,8.885101e-002
3.563806e+003,8.746749e-002
3.565735e+003,8.628608e-002
3.567663e+003,8.532427e-002
3.569592e+003,8.388628e-002
3.571520e+003,8.222102e-002
3.573449e+003,8.087081e-002
3.575377e+003,7.943837e-002
3.577306e+003,7.817379e-002
3.579234e+003,7.772755e-002
3.581163e+003,7.682952e-002
3.583091e+003,7.513456e-002
3.585020e+003,7.316541e-002
3.586948e+003,7.205664e-002
3.588876e+003,7.187887e-002
3.590805e+003,7.076932e-002
3.592733e+003,6.914901e-002
3.594662e+003,6.724942e-002
3.596590e+003,6.563681e-002
3.598519e+003,6.465680e-002
3.600447e+003,6.349096e-002
3.602376e+003,6.245675e-002
3.604304e+003,6.136732e-002
3.606233e+003,6.008888e-002
3.608161e+003,5.875542e-002
3.610090e+003,5.725488e-002
3.612018e+003,5.632655e-002
3.613947e+003,5.496724e-002
3.615875e+003,5.407354e-002
3.617803e+003,5.380264e-002
3.619732e+003,5.298942e-002
3.621660e+003,5.155709e-002
3.623589e+003,5.023712e-002
3.625517e+003,4.870936e-002
3.627446e+003,4.777913e-002
3.629374e+003,4.663300e-002
3.631303e+003,4.593483e-002
3.633231e+003,4.495378e-002
3.635160e+003,4.327238e-002
3.637088e+003,4.147278e-002
3.639017e+003,3.983689e-002
3.640945e+003,3.844396e-002
3.642874e+003,3.667370e-002
3.644802e+003,3.489156e-002
3.646730e+003,3.325869e-002
3.648659e+003,3.241060e-002
3.650587e+003,3.145524e-002
3.652516e+003,3.016121e-002
3.654444e+003,2.859953e-002
3.656373e+003,2.721899e-002
3.658301e+003,2.625379e-002
3.660230e+003,2.486313e-002
3.662158e+003,2.341914e-002
3.664087e+003,2.218792e-002
3.666015e+003,2.105825e-002
3.667944e+003,1.956170e-002
3.669872e+003,1.832607e-002
3.671801e+003,1.717109e-002
3.673729e+003,1.637084e-002
3.675657e+003,1.541734e-002
3.677586e+003,1.429379e-002
3.679514e+003,1.339099e-002
3.681443e+003,1.225668e-002
3.683371e+003,1.115442e-002
3.685300e+003,1.063307e-002
3.687228e+003,9.789249e-003
3.689157e+003,9.163052e-003
3.691085e+003,8.740758e-003
3.693014e+003,7.867775e-003
3.694942e+003,7.102557e-003
3.696871e+003,6.773557e-003
3.698799e+003,5.986645e-003
3.700728e+003,5.491182e-003
3.702656e+003,5.226173e-003
3.704584e+003,4.820989e-003
3.706513e+003,4.344825e-003
3.708441e+003,3.704835e-003
3.710370e+003,3.399202e-003
3.712298e+003,3.108268e-003
3.714227e+003,2.814793e-003
3.716155e+003,2.884065e-003
3.718084e+003,3.046901e-003
3.720012e+003,2.602709e-003
3.721941e+003,2.516384e-003
3.723869e+003,2.377368e-003
3.725798e+003,2.111822e-003
3.727726e+003,2.162400e-003
3.729655e+003,2.052460e-003
3.731583e+003,1.365278e-003
3.733511e+003,1.158518e-003
3.735440e+003,8.459401e-004
3.737368e+003,8.451766e-004
3.739297e+003,9.216064e-004
3.741225e+003,1.100416e-003
3.743154e+003,7.351372e-004
3.745082e+003,2.767242e-004
3.747011e+003,3.469273e-005
3.748939e+003,1.481344e-004
3.750868e+003,4.229299e-004
3.752796e+003,-3.042958e-004
3.754725e+003,-6.898989e-004
3.756653e+003,-1.010373e-003
3.758582e+003,-1.246402e-003
3.760510e+003,-7.841708e-004
3.762438e+003,-5.789626e-004
3.764367e+003,-7.928031e-004
3.766295e+003,-6.825216e-004
3.768224e+003,-7.247653e-004
3.770152e+003,-6.726631e-004
3.772081e+003,-8.751816e-004
3.774009e+003,-1.696459e-003
3.775938e+003,-1.658864e-003
3.777866e+003,-9.056355e-004
3.779795e+003,-1.062666e-003
3.781723e+003,-1.147637e-003
3.783652e+003,-1.228131e-003
3.785580e+003,-1.456909e-003
3.787509e+003,-1.758734e-003
3.789437e+003,-1.573564e-003
3.791365e+003,-1.572342e-003
3.793294e+003,-1.885403e-003
3.795222e+003,-1.831064e-003
3.797151e+003,-1.742003e-003
3.799079e+003,-2.114099e-003
3.801008e+003,-2.185414e-003
3.802936e+003,-1.794274e-003
3.804865e+003,-1.630708e-003
3.806793e+003,-1.357564e-003
3.808722e+003,-1.631434e-003
3.810650e+003,-2.368709e-003
3.812579e+003,-2.480474e-003
3.814507e+003,-2.060943e-003
3.816436e+003,-1.492176e-003
3.818364e+003,-8.413855e-004
3.820292e+003,-1.086331e-003
3.822221e+003,-1.899094e-003
3.824149e+003,-2.559634e-003
3.826078e+003,-2.679023e-003
3.828006e+003,-2.126958e-003
3.829935e+003,-1.935711e-003
3.831863e+003,-1.973974e-003
3.833792e+003,-1.611694e-003
3.835720e+003,-1.620970e-003
3.837649e+003,-1.831295e-003
3.839577e+003,-1.991653e-003
3.841506e+003,-1.952105e-003
3.843434e+003,-1.944452e-003
3.845363e+003,-2.019258e-003
3.847291e+003,-1.885172e-003
3.849219e+003,-1.901535e-003
3.851148e+003,-1.958867e-003
3.853076e+003,-2.403144e-003
3.855005e+003,-2.600938e-003
3.856933e+003,-3.067065e-003
3.858862e+003,-3.918888e-003
3.860790e+003,-3.879876e-003
3.862719e+003,-3.203878e-003
3.864647e+003,-2.503239e-003
3.866576e+003,-2.252202e-003
3.868504e+003,-2.723839e-003
3.870433e+003,-3.254099e-003
3.872361e+003,-2.864743e-003
3.874290e+003,-2.854671e-003
3.876218e+003,-2.898382e-003
3.878146e+003,-2.405023e-003
3.880075e+003,-2.747579e-003
3.882003e+003,-3.561415e-003
3.883932e+003,-3.519150e-003
3.885860e+003,-3.002772e-003
3.887789e+003,-2.423376e-003
3.889717e+003,-2.304016e-003
3.891646e+003,-2.370456e-003
3.893574e+003,-2.800420e-003
3.895503e+003,-2.836763e-003
3.897431e+003,-2.431679e-003
3.899360e+003,-2.833965e-003
3.901288e+003,-3.765777e-003
3.903217e+003,-3.656643e-003
3.905145e+003,-2.897856e-003
3.907073e+003,-2.796305e-003
3.909002e+003,-2.919710e-003
3.910930e+003,-2.664072e-003
3.912859e+003,-3.031859e-003
3.914787e+003,-2.915266e-003
3.916716e+003,-2.554661e-003
3.918644e+003,-2.998099e-003
3.920573e+003,-3.205917e-003
3.922501e+003,-2.875572e-003
3.924430e+003,-3.207562e-003
3.926358e+003,-3.442367e-003
3.928287e+003,-3.050548e-003
3.930215e+003,-3.264261e-003
3.932144e+003,-3.821156e-003
3.934072e+003,-3.688315e-003
3.936000e+003,-3.058510e-003
3.937929e+003,-2.842722e-003
3.939857e+003,-2.355923e-003
3.941786e+003,-2.063449e-003
3.943714e+003,-2.888376e-003
3.945643e+003,-3.363039e-003
3.947571e+003,-3.417087e-003
3.949500e+003,-3.202464e-003
3.951428e+003,-2.989708e-003
3.953357e+003,-3.118881e-003
3.955285e+003,-3.930052e-003
3.957214e+003,-4.021555e-003
3.959142e+003,-3.366655e-003
3.961071e+003,-2.887290e-003
3.962999e+003,-2.478234e-003
3.964927e+003,-2.352364e-003
3.966856e+003,-2.873630e-003
3.968784e+003,-2.848746e-003
3.970713e+003,-2.689956e-003
3.972641e+003,-2.885513e-003
3.974570e+003,-3.342127e-003
3.976498e+003,-3.644617e-003
3.978427e+003,-3.949556e-003
3.980355e+003,-3.370535e-003
3.982284e+003,-3.032452e-003
3.984212e+003,-3.325095e-003
3.986141e+003,-3.163684e-003
3.988069e+003,-2.803449e-003
3.989998e+003,-3.217034e-003
3.991926e+003,-3.555269e-003
3.993854e+003,-3.527991e-003
3.995783e+003,-3.654967e-003
3.997711e+003,-3.711936e-003
3.999640e+003,-2.832188e-003
4.001568e+003,0.000000e+000
