3.991927e+002,0.000000e+000
4.011211e+002,0.000000e+000
4.030496e+002,0.000000e+000
4.049781e+002,0.000000e+000
4.069065e+002,0.000000e+000
4.088350e+002,0.000000e+000
4.107635e+002,0.000000e+000
4.126919e+002,0.000000e+000
4.146204e+002,0.000000e+000
4.165489e+002,0.000000e+000
4.184773e+002,0.000000e+000
4.204058e+002,0.000000e+000
4.223343e+002,0.000000e+000
4.242627e+002,0.000000e+000
4.261912e+002,0.000000e+000
4.281197e+002,0.000000e+000
4.300481e+002,0.000000e+000
4.319766e+002,0.000000e+000
4.339051e+002,0.000000e+000
4.358335e+002,0.000000e+000
4.377620e+002,0.000000e+000
4.396905e+002,0.000000e+000
4.416189e+002,0.000000e+000
4.435474e+002,0.000000e+000
4.454759e+002,0.000000e+000
4.474043e+002,0.000000e+000
4.493328e+002,0.000000e+000
4.512613e+002,0.000000e+000
4.531897e+002,0.000000e+000
4.551182e+002,0.000000e+000
4.570467e+002,0.000000e+000
4.589751e+002,0.000000e+000
4.609036e+002,0.000000e+000
4.628321e+002,0.000000e+000
4.647605e+002,0.000000e+000
4.666890e+002,0.000000e+000
4.686175e+002,0.000000e+000
4.705459e+002,0.000000e+000
4.724744e+002,0.000000e+000
4.744029e+002,0.000000e+000
4.763313e+002,0.000000e+000
4.782598e+002,0.000000e+000
4.801883e+002,0.000000e+000
4.821167e+002,0.000000e+000
4.840452e+002,0.000000e+000
4.859737e+002,0.000000e+000
4.879021e+002,0.000000e+000
4.898306e+002,0.000000e+000
4.917591e+002,0.000000e+000
4.936875e+002,0.000000e+000
4.956160e+002,0.000000e+000
4.975445e+002,0.000000e+000
4.994729e+002,0.000000e+000
5.014014e+002,0.000000e+000
5.033299e+002,0.000000e+000
5.052583e+002,0.000000e+000
5.071868e+002,0.000000e+000
5.091153e+002,0.000000e+000
5.110437e+002,0.000000e+000
5.129722e+002,0.000000e+000
5.149006e+002,0.000000e+000
5.168291e+002,0.000000e+000
5.187576e+002,0.000000e+000
5.206860e+002,0.000000e+000
5.226145e+002,0.000000e+000
5.245430e+002,0.000000e+000
5.264714e+002,0.000000e+000
5.283999e+002,0.000000e+000
5.303284e+002,0.000000e+000
5.322568e+002,0.000000e+000
5.341853e+002,0.000000e+000
5.361138e+002,0.000000e+000
5.380422e+002,0.000000e+000
5.399707e+002,0.000000e+000
5.418992e+002,0.000000e+000
5.438276e+002,0.000000e+000
5.457561e+002,0.000000e+000
5.476846e+002,0.000000e+000
5.496130e+002,0.000000e+000
5.515415e+002,0.000000e+000
5.534700e+002,0.000000e+000
5.553984e+002,0.000000e+000
5.573269e+002,0.000000e+000
5.592554e+002,0.000000e+000
5.611838e+002,0.000000e+000
5.631123e+002,0.000000e+000
5.650408e+002,0.000000e+000
5.669692e+002,0.000000e+000
5.688977e+002,0.000000e+000
5.708262e+002,0.000000e+000
5.727546e+002,0.000000e+000
5.746831e+002,0.000000e+000
5.766116e+002,0.000000e+000
5.785400e+002,0.000000e+000
5.804685e+002,0.000000e+000
5.823970e+002,0.000000e+000
5.843254e+002,0.000000e+000
5.862539e+002,0.000000e+000
5.881824e+002,0.000000e+000
5.901108e+002,0.000000e+000
5.920393e+002,0.000000e+000
5.939678e+002,0.000000e+000
5.958962e+002,0.000000e+000
5.978247e+002,0.000000e+000
5.997532e+002,0.000000e+000
6.016816e+002,0.000000e+000
6.036101e+002,0.000000e+000
6.055386e+002,0.000000e+000
6.074670e+002,0.000000e+000
6.093955e+002,0.000000e+000
6.113240e+002,0.000000e+000
6.132524e+002,0.000000e+000
6.151809e+002,0.000000e+000
6.171094e+002,0.000000e+000
6.190378e+002,0.000000e+000
6.209663e+002,0.000000e+000
6.228948e+002,0.000000e+000
6.248232e+002,0.000000e+000
6.267517e+002,0.000000e+000
6.286802e+002,0.000000e+000
6.306086e+002,0.000000e+000
6.325371e+002,0.000000e+000
6.344656e+002,0.000000e+000
6.363940e+002,0.000000e+000
6.383225e+002,0.000000e+000
6.402510e+002,0.000000e+000
6.421794e+002,0.000000e+000
6.441079e+002,0.000000e+000
6.460364e+002,0.000000e+000
6.479648e+002,0.000000e+000
6.498933e+002,3.823163e-001
6.518218e+002,3.792680e-001
6.537502e+002,3.755482e-001
6.556787e+002,3.727473e-001
6.576072e+002,3.714668e-001
6.595356e+002,3.709294e-001
6.614641e+002,3.692259e-001
6.633926e+002,3.681094e-001
6.653210e+002,3.644243e-001
6.672495e+002,3.609327e-001
6.691780e+002,3.573822e-001
6.711064e+002,3.539389e-001
6.730349e+002,3.510622e-001
6.749634e+002,3.469208e-001
6.768918e+002,3.447894e-001
6.788203e+002,3.432851e-001
6.807488e+002,3.404433e-001
6.826772e+002,3.390343e-001
6.846057e+002,3.377888e-001
6.865342e+002,3.342080e-001
6.884626e+002,3.317951e-001
6.903911e+002,3.284124e-001
6.923196e+002,3.259774e-001
6.942480e+002,3.245892e-001
6.961765e+002,3.232415e-001
6.981050e+002,3.210105e-001
7.000334e+002,3.190580e-001
7.019619e+002,3.165466e-001
7.038904e+002,3.153239e-001
7.058188e+002,3.130432e-001
7.077473e+002,3.107065e-001
7.096758e+002,3.083877e-001
7.116042e+002,3.052528e-001
7.135327e+002,3.026285e-001
7.154612e+002,3.001789e-001
7.173896e+002,2.967906e-001
7.193181e+002,2.919012e-001
7.212466e+002,2.899890e-001
7.231750e+002,2.896984e-001
7.251035e+002,2.862155e-001
7.270320e+002,2.830357e-001
7.289604e+002,2.807405e-001
7.308889e+002,2.790257e-001
7.328174e+002,2.768448e-001
7.347458e+002,2.747755e-001
7.366743e+002,2.717964e-001
7.386028e+002,2.689523e-001
7.405313e+002,2.661865e-001
7.424597e+002,2.624538e-001
7.443882e+002,2.591102e-001
7.463167e+002,2.578607e-001
7.482451e+002,2.558300e-001
7.501736e+002,2.521774e-001
7.521021e+002,2.486853e-001
7.540305e+002,2.457911e-001
7.559590e+002,2.428870e-001
7.578875e+002,2.404123e-001
7.598159e+002,2.372314e-001
7.617444e+002,2.350214e-001
7.636729e+002,2.335188e-001
7.656013e+002,2.312676e-001
7.675298e+002,2.288031e-001
7.694583e+002,2.264230e-001
7.713867e+002,2.240014e-001
7.733152e+002,2.218341e-001
7.752437e+002,2.190496e-001
7.771721e+002,2.153150e-001
7.791006e+002,2.129897e-001
7.810291e+002,2.111333e-001
7.829575e+002,2.086601e-001
7.848860e+002,2.051279e-001
7.868145e+002,2.019848e-001
7.887429e+002,1.994253e-001
7.906714e+002,1.965574e-001
7.925999e+002,1.934435e-001
7.945283e+002,1.910348e-001
7.964568e+002,1.883549e-001
7.983853e+002,1.853527e-001
8.003137e+002,1.839347e-001
8.022422e+002,1.813156e-001
8.041707e+002,1.787898e-001
8.060991e+002,1.770755e-001
8.080276e+002,1.752202e-001
8.099561e+002,1.729995e-001
8.118845e+002,1.697106e-001
8.138130e+002,1.665519e-001
8.157415e+002,1.643427e-001
8.176699e+002,1.640128e-001
8.195984e+002,1.619611e-001
8.215269e+002,1.589189e-001
8.234553e+002,1.567562e-001
8.253838e+002,1.547260e-001
8.273123e+002,1.527014e-001
8.292407e+002,1.511174e-001
8.311692e+002,1.500504e-001
8.330977e+002,1.482654e-001
8.350261e+002,1.469974e-001
8.369546e+002,1.452523e-001
8.388831e+002,1.423966e-001
8.408115e+002,1.396779e-001
8.427400e+002,1.374197e-001
8.446685e+002,1.357998e-001
8.465969e+002,1.334157e-001
8.485254e+002,1.310011e-001
8.504539e+002,1.298402e-001
8.523823e+002,1.283965e-001
8.543108e+002,1.262425e-001
8.562393e+002,1.239677e-001
8.581677e+002,1.219918e-001
8.600962e+002,1.201892e-001
8.620247e+002,1.179980e-001
8.639531e+002,1.158837e-001
8.658816e+002,1.133501e-001
8.678101e+002,1.113036e-001
8.697385e+002,1.094602e-001
8.716670e+002,1.080935e-001
8.735955e+002,1.060440e-001
8.755239e+002,1.039032e-001
8.774524e+002,1.018556e-001
8.793809e+002,1.010036e-001
8.813093e+002,1.002319e-001
8.832378e+002,9.834746e-002
8.851663e+002,9.721325e-002
8.870947e+002,9.623341e-002
8.890232e+002,9.431531e-002
8.909517e+002,9.256226e-002
8.928801e+002,9.156223e-002
8.948086e+002,9.054993e-002
8.967371e+002,8.875044e-002
8.986655e+002,8.679624e-002
9.005940e+002,8.494580e-002
9.025225e+002,8.348826e-002
9.044509e+002,8.198033e-002
9.063794e+002,8.080249e-002
9.083079e+002,7.996284e-002
9.102363e+002,7.869448e-002
9.121648e+002,7.729214e-002
9.140933e+002,7.673956e-002
9.160217e+002,7.576493e-002
9.179502e+002,7.429746e-002
9.198787e+002,7.303779e-002
9.218071e+002,7.242478e-002
9.237356e+002,7.170515e-002
9.256641e+002,7.045370e-002
9.275925e+002,6.909858e-002
9.295210e+002,6.795363e-002
9.314495e+002,6.672349e-002
9.333779e+002,6.575599e-002
9.353064e+002,6.547894e-002
9.372349e+002,6.494537e-002
9.391633e+002,6.384385e-002
9.410918e+002,6.272572e-002
9.430203e+002,6.178548e-002
9.449487e+002,6.158189e-002
9.468772e+002,6.145671e-002
9.488057e+002,6.057955e-002
9.507341e+002,5.959271e-002
9.526626e+002,5.888411e-002
9.545911e+002,5.799024e-002
9.565195e+002,5.737182e-002
9.584480e+002,5.717996e-002
9.603765e+002,5.676696e-002
9.623049e+002,5.620853e-002
9.642334e+002,5.597715e-002
9.661619e+002,5.550061e-002
9.680903e+002,5.492117e-002
9.700188e+002,5.508300e-002
9.719473e+002,5.513660e-002
9.738757e+002,5.482041e-002
9.758042e+002,5.414763e-002
9.777327e+002,5.385448e-002
9.796611e+002,5.382931e-002
9.815896e+002,5.374065e-002
9.835181e+002,5.409475e-002
9.854465e+002,5.418719e-002
9.873750e+002,5.409002e-002
9.893035e+002,5.393265e-002
9.912319e+002,5.418933e-002
9.931604e+002,5.453444e-002
9.950889e+002,5.435099e-002
9.970173e+002,5.442092e-002
9.989458e+002,5.488918e-002
1.000874e+003,5.513209e-002
1.002803e+003,5.579213e-002
1.004731e+003,5.678316e-002
1.006660e+003,5.864884e-002
1.008588e+003,6.154836e-002
1.010517e+003,6.402244e-002
1.012445e+003,6.619102e-002
1.014374e+003,6.795352e-002
1.016302e+003,6.871570e-002
1.018230e+003,6.722404e-002
1.020159e+003,6.499212e-002
1.022087e+003,6.305921e-002
1.024016e+003,6.074693e-002
1.025944e+003,5.874840e-002
1.027873e+003,5.745656e-002
1.029801e+003,5.611019e-002
1.031730e+003,5.448718e-002
1.033658e+003,5.376596e-002
1.035587e+003,5.324363e-002
1.037515e+003,5.278410e-002
1.039444e+003,5.235187e-002
1.041372e+003,5.268773e-002
1.043301e+003,5.325614e-002
1.045229e+003,5.363717e-002
1.047157e+003,5.386153e-002
1.049086e+003,5.368141e-002
1.051014e+003,5.360729e-002
1.052943e+003,5.336853e-002
1.054871e+003,5.279627e-002
1.056800e+003,5.225547e-002
1.058728e+003,5.110263e-002
1.060657e+003,4.976987e-002
1.062585e+003,4.884849e-002
1.064514e+003,4.873642e-002
1.066442e+003,4.877857e-002
1.068371e+003,4.850313e-002
1.070299e+003,4.849369e-002
1.072228e+003,4.795896e-002
1.074156e+003,4.703883e-002
1.076084e+003,4.730728e-002
1.078013e+003,4.778390e-002
1.079941e+003,4.820410e-002
1.081870e+003,4.834622e-002
1.083798e+003,4.818304e-002
1.085727e+003,4.825694e-002
1.087655e+003,4.758155e-002
1.089584e+003,4.669465e-002
1.091512e+003,4.639225e-002
1.093441e+003,4.643992e-002
1.095369e+003,4.598080e-002
1.097298e+003,4.496943e-002
1.099226e+003,4.465229e-002
1.101155e+003,4.340729e-002
1.103083e+003,4.262527e-002
1.105011e+003,4.271656e-002
1.106940e+003,4.290604e-002
1.108868e+003,4.273736e-002
1.110797e+003,4.314037e-002
1.112725e+003,4.343395e-002
1.114654e+003,4.307180e-002
1.116582e+003,4.305273e-002
1.118511e+003,4.257064e-002
1.120439e+003,4.185291e-002
1.122368e+003,4.147964e-002
1.124296e+003,4.084710e-002
1.126225e+003,4.058595e-002
1.128153e+003,4.083337e-002
1.130082e+003,4.129478e-002
1.132010e+003,4.107281e-002
1.133938e+003,4.111782e-002
1.135867e+003,4.131252e-002
1.137795e+003,4.086464e-002
1.139724e+003,4.043337e-002
1.141652e+003,4.071105e-002
1.143581e+003,4.030047e-002
1.145509e+003,3.954434e-002
1.147438e+003,3.929381e-002
1.149366e+003,3.912638e-002
1.151295e+003,3.883573e-002
1.153223e+003,3.887247e-002
1.155152e+003,3.882246e-002
1.157080e+003,3.863109e-002
1.159009e+003,3.860053e-002
1.160937e+003,3.842036e-002
1.162865e+003,3.838489e-002
1.164794e+003,3.825858e-002
1.166722e+003,3.806807e-002
1.168651e+003,3.774495e-002
1.170579e+003,3.771264e-002
1.172508e+003,3.802478e-002
1.174436e+003,3.770942e-002
1.176365e+003,3.764744e-002
1.178293e+003,3.802276e-002
1.180222e+003,3.873548e-002
1.182150e+003,3.885323e-002
1.184079e+003,3.876968e-002
1.186007e+003,3.871679e-002
1.187936e+003,3.888993e-002
1.189864e+003,3.932222e-002
1.191792e+003,3.995795e-002
1.193721e+003,4.016259e-002
1.195649e+003,4.024586e-002
1.197578e+003,4.042817e-002
1.199506e+003,4.030003e-002
1.201435e+003,4.048523e-002
1.203363e+003,4.099094e-002
1.205292e+003,4.112384e-002
1.207220e+003,4.133807e-002
1.209149e+003,4.167281e-002
1.211077e+003,4.183481e-002
1.213006e+003,4.217425e-002
1.214934e+003,4.234111e-002
1.216863e+003,4.256735e-002
1.218791e+003,4.284288e-002
1.220719e+003,4.313012e-002
1.222648e+003,4.330844e-002
1.224576e+003,4.298922e-002
1.226505e+003,4.341092e-002
1.228433e+003,4.368300e-002
1.230362e+003,4.352906e-002
1.232290e+003,4.372671e-002
1.234219e+003,4.407357e-002
1.236147e+003,4.445764e-002
1.238076e+003,4.466915e-002
1.240004e+003,4.458374e-002
1.241933e+003,4.446894e-002
1.243861e+003,4.451009e-002
1.245790e+003,4.444604e-002
1.247718e+003,4.451666e-002
1.249646e+003,4.445404e-002
1.251575e+003,4.407827e-002
1.253503e+003,4.386649e-002
1.255432e+003,4.385979e-002
1.257360e+003,4.353075e-002
1.259289e+003,4.320525e-002
1.261217e+003,4.301805e-002
1.263146e+003,4.280632e-002
1.265074e+003,4.304940e-002
1.267003e+003,4.352903e-002
1.268931e+003,4.416600e-002
1.270860e+003,4.482874e-002
1.272788e+003,4.503474e-002
1.274717e+003,4.518906e-002
1.276645e+003,4.528621e-002
1.278573e+003,4.514517e-002
1.280502e+003,4.504639e-002
1.282430e+003,4.471976e-002
1.284359e+003,4.438768e-002
1.286287e+003,4.401171e-002
1.288216e+003,4.360141e-002
1.290144e+003,4.342194e-002
1.292073e+003,4.301088e-002
1.294001e+003,4.212248e-002
1.295930e+003,4.163463e-002
1.297858e+003,4.115953e-002
1.299787e+003,4.079181e-002
1.301715e+003,4.064609e-002
1.303644e+003,4.029280e-002
1.305572e+003,3.968932e-002
1.307500e+003,3.940566e-002
1.309429e+003,3.918019e-002
1.311357e+003,3.894227e-002
1.313286e+003,3.856746e-002
1.315214e+003,3.807617e-002
1.317143e+003,3.788007e-002
1.319071e+003,3.788021e-002
1.321000e+003,3.793976e-002
1.322928e+003,3.798066e-002
1.324857e+003,3.807560e-002
1.326785e+003,3.803794e-002
1.328714e+003,3.784554e-002
1.330642e+003,3.756738e-002
1.332571e+003,3.773992e-002
1.334499e+003,3.788133e-002
1.336427e+003,3.765908e-002
1.338356e+003,3.756832e-002
1.340284e+003,3.782920e-002
1.342213e+003,3.793250e-002
1.344141e+003,3.786188e-002
1.346070e+003,3.793705e-002
1.347998e+003,3.805176e-002
1.349927e+003,3.804894e-002
1.351855e+003,3.838724e-002
1.353784e+003,3.880391e-002
1.355712e+003,3.907232e-002
1.357641e+003,3.942452e-002
1.359569e+003,3.962841e-002
1.361498e+003,4.003090e-002
1.363426e+003,4.041522e-002
1.365354e+003,4.036082e-002
1.367283e+003,4.042122e-002
1.369211e+003,4.066887e-002
1.371140e+003,4.081273e-002
1.373068e+003,4.105434e-002
1.374997e+003,4.128639e-002
1.376925e+003,4.102284e-002
1.378854e+003,4.053983e-002
1.380782e+003,4.042122e-002
1.382711e+003,4.007948e-002
1.384639e+003,3.973793e-002
1.386568e+003,3.948236e-002
1.388496e+003,3.923252e-002
1.390425e+003,3.932813e-002
1.392353e+003,3.941686e-002
1.394281e+003,3.916558e-002
1.396210e+003,3.908396e-002
1.398138e+003,3.915771e-002
1.400067e+003,3.895586e-002
1.401995e+003,3.908153e-002
1.403924e+003,3.911819e-002
1.405852e+003,3.924238e-002
1.407781e+003,3.913450e-002
1.409709e+003,3.889457e-002
1.411638e+003,3.895321e-002
1.413566e+003,3.902230e-002
1.415495e+003,3.901776e-002
1.417423e+003,3.875316e-002
1.419352e+003,3.867908e-002
1.421280e+003,3.885246e-002
1.423208e+003,3.891103e-002
1.425137e+003,3.890660e-002
1.427065e+003,3.887091e-002
1.428994e+003,3.917072e-002
1.430922e+003,3.942844e-002
1.432851e+003,3.946577e-002
1.434779e+003,3.959171e-002
1.436708e+003,3.976495e-002
1.438636e+003,3.982639e-002
1.440565e+003,3.975213e-002
1.442493e+003,3.995501e-002
1.444422e+003,4.010691e-002
1.446350e+003,3.987538e-002
1.448279e+003,3.992747e-002
1.450207e+003,3.993731e-002
1.452135e+003,3.965868e-002
1.454064e+003,3.933857e-002
1.455992e+003,3.896640e-002
1.457921e+003,3.845700e-002
1.459849e+003,3.817612e-002
1.461778e+003,3.816216e-002
1.463706e+003,3.796066e-002
1.465635e+003,3.779591e-002
1.467563e+003,3.749961e-002
1.469492e+003,3.725809e-002
1.471420e+003,3.708170e-002
1.473349e+003,3.685476e-002
1.475277e+003,3.661948e-002
1.477206e+003,3.640266e-002
1.479134e+003,3.617076e-002
1.481063e+003,3.619233e-002
1.482991e+003,3.589395e-002
1.484919e+003,3.546205e-002
1.486848e+003,3.500568e-002
1.488776e+003,3.472359e-002
1.490705e+003,3.484384e-002
1.492633e+003,3.502993e-002
1.494562e+003,3.534151e-002
1.496490e+003,3.540169e-002
1.498419e+003,3.549915e-002
1.500347e+003,3.614782e-002
1.502276e+003,3.663415e-002
1.504204e+003,3.686064e-002
1.506133e+003,3.725148e-002
1.508061e+003,3.790422e-002
1.509990e+003,3.859502e-002
1.511918e+003,3.937692e-002
1.513846e+003,3.977475e-002
1.515775e+003,3.969883e-002
1.517703e+003,3.936774e-002
1.519632e+003,3.885138e-002
1.521560e+003,3.807802e-002
1.523489e+003,3.738750e-002
1.525417e+003,3.664176e-002
1.527346e+003,3.609391e-002
1.529274e+003,3.594480e-002
1.531203e+003,3.589917e-002
1.533131e+003,3.599347e-002
1.535060e+003,3.605838e-002
1.536988e+003,3.643347e-002
1.538917e+003,3.692810e-002
1.540845e+003,3.730380e-002
1.542773e+003,3.799086e-002
1.544702e+003,3.807523e-002
1.546630e+003,3.788484e-002
1.548559e+003,3.810153e-002
1.550487e+003,3.876134e-002
1.552416e+003,3.936596e-002
1.554344e+003,4.010546e-002
1.556273e+003,4.109160e-002
1.558201e+003,4.189366e-002
1.560130e+003,4.250120e-002
1.562058e+003,4.332294e-002
1.563987e+003,4.421006e-002
1.565915e+003,4.505216e-002
1.567844e+003,4.597310e-002
1.569772e+003,4.713403e-002
1.571700e+003,4.812703e-002
1.573629e+003,4.921625e-002
1.575557e+003,5.048343e-002
1.577486e+003,5.197155e-002
1.579414e+003,5.326116e-002
1.581343e+003,5.471667e-002
1.583271e+003,5.658420e-002
1.585200e+003,5.816109e-002
1.587128e+003,5.920058e-002
1.589057e+003,6.068150e-002
1.590985e+003,6.251877e-002
1.592914e+003,6.449344e-002
1.594842e+003,6.671043e-002
1.596771e+003,6.924996e-002
1.598699e+003,7.180502e-002
1.600627e+003,7.436690e-002
1.602556e+003,7.702674e-002
1.604484e+003,7.993269e-002
1.606413e+003,8.306726e-002
1.608341e+003,8.578400e-002
1.610270e+003,8.825077e-002
1.612198e+003,9.118883e-002
1.614127e+003,9.399869e-002
1.616055e+003,9.683617e-002
1.617984e+003,9.958827e-002
1.619912e+003,1.019730e-001
1.621841e+003,1.042569e-001
1.623769e+003,1.070234e-001
1.625698e+003,1.093464e-001
1.627626e+003,1.113439e-001
1.629554e+003,1.133511e-001
1.631483e+003,1.148371e-001
1.633411e+003,1.159609e-001
1.635340e+003,1.166470e-001
1.637268e+003,1.167860e-001
1.639197e+003,1.167554e-001
1.641125e+003,1.164691e-001
1.643054e+003,1.157211e-001
1.644982e+003,1.148126e-001
1.646911e+003,1.134465e-001
1.648839e+003,1.115407e-001
1.650768e+003,1.096053e-001
1.652696e+003,1.076836e-001
1.654625e+003,1.058168e-001
1.656553e+003,1.034701e-001
1.658481e+003,1.010763e-001
1.660410e+003,9.875789e-002
1.662338e+003,9.629937e-002
1.664267e+003,9.377770e-002
1.666195e+003,9.140488e-002
1.668124e+003,8.896966e-002
1.670052e+003,8.609580e-002
1.671981e+003,8.360972e-002
1.673909e+003,8.103238e-002
1.675838e+003,7.837829e-002
1.677766e+003,7.605869e-002
1.679695e+003,7.387380e-002
1.681623e+003,7.160331e-002
1.683552e+003,6.936535e-002
1.685480e+003,6.713056e-002
1.687408e+003,6.499482e-002
1.689337e+003,6.304155e-002
1.691265e+003,6.126128e-002
1.693194e+003,5.958188e-002
1.695122e+003,5.788313e-002
1.697051e+003,5.632255e-002
1.698979e+003,5.465091e-002
1.700908e+003,5.282583e-002
1.702836e+003,5.119515e-002
1.704765e+003,4.998614e-002
1.706693e+003,4.880612e-002
1.708622e+003,4.727469e-002
1.710550e+003,4.575959e-002
1.712479e+003,4.461429e-002
1.714407e+003,4.343604e-002
1.716335e+003,4.199275e-002
1.718264e+003,4.076589e-002
1.720192e+003,3.970108e-002
1.722121e+003,3.838688e-002
1.724049e+003,3.709158e-002
1.725978e+003,3.557402e-002
1.727906e+003,3.378026e-002
1.729835e+003,3.205922e-002
1.731763e+003,3.044334e-002
1.733692e+003,2.877085e-002
1.735620e+003,2.734234e-002
1.737549e+003,2.604223e-002
1.739477e+003,2.477332e-002
1.741406e+003,2.342540e-002
1.743334e+003,2.239559e-002
1.745262e+003,2.150534e-002
1.747191e+003,2.052546e-002
1.749119e+003,1.974495e-002
1.751048e+003,1.880765e-002
1.752976e+003,1.814421e-002
1.754905e+003,1.759277e-002
1.756833e+003,1.677152e-002
1.758762e+003,1.644094e-002
1.760690e+003,1.620933e-002
1.762619e+003,1.543952e-002
1.764547e+003,1.492716e-002
1.766476e+003,1.472951e-002
1.768404e+003,1.434409e-002
1.770333e+003,1.381613e-002
1.772261e+003,1.352910e-002
1.774189e+003,1.315312e-002
1.776118e+003,1.254563e-002
1.778046e+003,1.194855e-002
1.779975e+003,1.153895e-002
1.781903e+003,1.123259e-002
1.783832e+003,1.103556e-002
1.785760e+003,1.076860e-002
1.787689e+003,1.050120e-002
1.789617e+003,1.011790e-002
1.791546e+003,9.851541e-003
1.793474e+003,9.704839e-003
1.795403e+003,9.411309e-003
1.797331e+003,9.153374e-003
1.799260e+003,8.933234e-003
1.801188e+003,8.658883e-003
1.803116e+003,8.516637e-003
1.805045e+003,8.565095e-003
1.806973e+003,8.575436e-003
1.808902e+003,8.408386e-003
1.810830e+003,8.055780e-003
1.812759e+003,7.804788e-003
1.814687e+003,7.730544e-003
1.816616e+003,7.863186e-003
1.818544e+003,7.761070e-003
1.820473e+003,7.570731e-003
1.822401e+003,7.533273e-003
1.824330e+003,7.546826e-003
1.826258e+003,7.561358e-003
1.828187e+003,7.477379e-003
1.830115e+003,7.458671e-003
1.832043e+003,7.263612e-003
1.833972e+003,7.164129e-003
1.835900e+003,7.078846e-003
1.837829e+003,6.878236e-003
1.839757e+003,6.810141e-003
1.841686e+003,6.835083e-003
1.843614e+003,6.746533e-003
1.845543e+003,6.738153e-003
1.847471e+003,6.744177e-003
1.849400e+003,6.735596e-003
1.851328e+003,6.694374e-003
1.853257e+003,6.421602e-003
1.855185e+003,6.390599e-003
1.857114e+003,6.667288e-003
1.859042e+003,6.700296e-003
1.860970e+003,6.540896e-003
1.862899e+003,6.448438e-003
1.864827e+003,6.477562e-003
1.866756e+003,6.507361e-003
1.868684e+003,6.647740e-003
1.870613e+003,6.664125e-003
1.872541e+003,6.519773e-003
1.874470e+003,6.323454e-003
1.876398e+003,6.008012e-003
1.878327e+003,6.057467e-003
1.880255e+003,6.323488e-003
1.882183e+003,6.382394e-003
1.884112e+003,6.234236e-003
1.886040e+003,6.062541e-003
1.887969e+003,5.955807e-003
1.889897e+003,5.873549e-003
1.891826e+003,5.995212e-003
1.893754e+003,6.050747e-003
1.895683e+003,6.196020e-003
1.897611e+003,6.266203e-003
1.899540e+003,6.187954e-003
1.901468e+003,6.236892e-003
1.903397e+003,6.311956e-003
1.905325e+003,6.480421e-003
1.907254e+003,6.583146e-003
1.909182e+003,6.278103e-003
1.911110e+003,6.042281e-003
1.913039e+003,6.164394e-003
1.914967e+003,6.401897e-003
1.916896e+003,6.478773e-003
1.918824e+003,6.548296e-003
1.920753e+003,6.550449e-003
1.922681e+003,6.703426e-003
1.924610e+003,6.600538e-003
1.926538e+003,6.440098e-003
1.928467e+003,6.573491e-003
1.930395e+003,6.608814e-003
1.932324e+003,6.589807e-003
1.934252e+003,6.717390e-003
1.936181e+003,6.805396e-003
1.938109e+003,6.848378e-003
1.940037e+003,6.862246e-003
1.941966e+003,6.867700e-003
1.943894e+003,6.879751e-003
1.945823e+003,6.934760e-003
1.947751e+003,7.026345e-003
1.949680e+003,7.025200e-003
1.951608e+003,7.179355e-003
1.953537e+003,7.123338e-003
1.955465e+003,7.063793e-003
1.957394e+003,7.494133e-003
1.959322e+003,7.486582e-003
1.961251e+003,7.284267e-003
1.963179e+003,7.383509e-003
1.965108e+003,7.510382e-003
1.967036e+003,7.627008e-003
1.968964e+003,7.898817e-003
1.970893e+003,7.737458e-003
1.972821e+003,7.626704e-003
1.974750e+003,7.841594e-003
1.976678e+003,8.097671e-003
1.978607e+003,8.199125e-003
1.980535e+003,8.118163e-003
1.982464e+003,8.157595e-003
1.984392e+003,8.527079e-003
1.986321e+003,8.678556e-003
1.988249e+003,8.536100e-003
1.990178e+003,8.465009e-003
1.992106e+003,8.616397e-003
1.994035e+003,8.775412e-003
1.995963e+003,8.890145e-003
1.997891e+003,8.998922e-003
1.999820e+003,8.866946e-003
2.001748e+003,8.747317e-003
2.003677e+003,8.866473e-003
2.005605e+003,8.875975e-003
2.007534e+003,9.134525e-003
2.009462e+003,9.288753e-003
2.011391e+003,9.360590e-003
2.013319e+003,9.646970e-003
2.015248e+003,9.582132e-003
2.017176e+003,9.621325e-003
2.019105e+003,9.946320e-003
2.021033e+003,9.962593e-003
2.022962e+003,9.909640e-003
2.024890e+003,1.002149e-002
2.026818e+003,1.021443e-002
2.028747e+003,1.029178e-002
2.030675e+003,1.035482e-002
2.032604e+003,1.040084e-002
2.034532e+003,1.049740e-002
2.036461e+003,1.062862e-002
2.038389e+003,1.057840e-002
2.040318e+003,1.049251e-002
2.042246e+003,1.045297e-002
2.044175e+003,1.062743e-002
2.046103e+003,1.078100e-002
2.048032e+003,1.076083e-002
2.049960e+003,1.087061e-002
2.051889e+003,1.111411e-002
2.053817e+003,1.131709e-002
2.055746e+003,1.123612e-002
2.057674e+003,1.113862e-002
2.059603e+003,1.130804e-002
2.061531e+003,1.148492e-002
2.063459e+003,1.155797e-002
2.065388e+003,1.149128e-002
2.067316e+003,1.155304e-002
2.069245e+003,1.161440e-002
2.071173e+003,1.174227e-002
2.073102e+003,1.163223e-002
2.075030e+003,1.165745e-002
2.076959e+003,1.187060e-002
2.078887e+003,1.205414e-002
2.080816e+003,1.215833e-002
2.082744e+003,1.212988e-002
2.084673e+003,1.191875e-002
2.086601e+003,1.194388e-002
2.088530e+003,1.204859e-002
2.090458e+003,1.194930e-002
2.092386e+003,1.214794e-002
2.094315e+003,1.241922e-002
2.096243e+003,1.222117e-002
2.098172e+003,1.213138e-002
2.100100e+003,1.239736e-002
2.102029e+003,1.258741e-002
2.103957e+003,1.263752e-002
2.105886e+003,1.263833e-002
2.107814e+003,1.267671e-002
2.109743e+003,1.259887e-002
2.111671e+003,1.260071e-002
2.113600e+003,1.259819e-002
2.115528e+003,1.239464e-002
2.117457e+003,1.225886e-002
2.119385e+003,1.240459e-002
2.121313e+003,1.243620e-002
2.123242e+003,1.240220e-002
2.125170e+003,1.232996e-002
2.127099e+003,1.228841e-002
2.129027e+003,1.235509e-002
2.130956e+003,1.241894e-002
2.132884e+003,1.229912e-002
2.134813e+003,1.225170e-002
2.136741e+003,1.231088e-002
2.138670e+003,1.242518e-002
2.140598e+003,1.231510e-002
2.142527e+003,1.229578e-002
2.144455e+003,1.238570e-002
2.146384e+003,1.236757e-002
2.148312e+003,1.222025e-002
2.150240e+003,1.219193e-002
2.152169e+003,1.209635e-002
2.154097e+003,1.205346e-002
2.156026e+003,1.213073e-002
2.157954e+003,1.188687e-002
2.159883e+003,1.158656e-002
2.161811e+003,1.167236e-002
2.163740e+003,1.173284e-002
2.165668e+003,1.165588e-002
2.167597e+003,1.164210e-002
2.169525e+003,1.156236e-002
2.171454e+003,1.122494e-002
2.173382e+003,1.122140e-002
2.175311e+003,1.126917e-002
2.177239e+003,1.121848e-002
2.179167e+003,1.106614e-002
2.181096e+003,1.091468e-002
2.183024e+003,1.088070e-002
2.184953e+003,1.088920e-002
2.186881e+003,1.092803e-002
2.188810e+003,1.080811e-002
2.190738e+003,1.062797e-002
2.192667e+003,1.046522e-002
2.194595e+003,1.049486e-002
2.196524e+003,1.056689e-002
2.198452e+003,1.077292e-002
2.200381e+003,1.062733e-002
2.202309e+003,1.035791e-002
2.204238e+003,1.014143e-002
2.206166e+003,1.009477e-002
2.208094e+003,1.001257e-002
2.210023e+003,9.886759e-003
2.211951e+003,9.676581e-003
2.213880e+003,9.434165e-003
2.215808e+003,9.459021e-003
2.217737e+003,9.435926e-003
2.219665e+003,9.377755e-003
2.221594e+003,9.485672e-003
2.223522e+003,9.442326e-003
2.225451e+003,9.029334e-003
2.227379e+003,8.737174e-003
2.229308e+003,8.910911e-003
2.231236e+003,8.961646e-003
2.233165e+003,8.975277e-003
2.235093e+003,8.992224e-003
2.237021e+003,8.732880e-003
2.238950e+003,8.637150e-003
2.240878e+003,8.555125e-003
2.242807e+003,8.168062e-003
2.244735e+003,7.890247e-003
2.246664e+003,7.780364e-003
2.248592e+003,7.884241e-003
2.250521e+003,8.019091e-003
2.252449e+003,7.828200e-003
2.254378e+003,7.533509e-003
2.256306e+003,7.599863e-003
2.258235e+003,7.615981e-003
2.260163e+003,7.543994e-003
2.262092e+003,7.595581e-003
2.264020e+003,7.592108e-003
2.265948e+003,7.347583e-003
2.267877e+003,7.190135e-003
2.269805e+003,7.243061e-003
2.271734e+003,7.133308e-003
2.273662e+003,6.886181e-003
2.275591e+003,6.625433e-003
2.277519e+003,6.500332e-003
2.279448e+003,6.710156e-003
2.281376e+003,6.901330e-003
2.283305e+003,6.760196e-003
2.285233e+003,6.587519e-003
2.287162e+003,6.540189e-003
2.289090e+003,6.260321e-003
2.291019e+003,5.955371e-003
2.292947e+003,5.869049e-003
2.294875e+003,6.076855e-003
2.296804e+003,6.117749e-003
2.298732e+003,6.075309e-003
2.300661e+003,6.066740e-003
2.302589e+003,6.160159e-003
2.304518e+003,6.060794e-003
2.306446e+003,5.656274e-003
2.308375e+003,5.540546e-003
2.310303e+003,5.690112e-003
2.312232e+003,5.662182e-003
2.314160e+003,5.389688e-003
2.316089e+003,5.242673e-003
2.318017e+003,5.477391e-003
2.319946e+003,5.306967e-003
2.321874e+003,5.166552e-003
2.323802e+003,5.340678e-003
2.325731e+003,5.368688e-003
2.327659e+003,5.084779e-003
2.329588e+003,5.096378e-003
2.331516e+003,5.003356e-003
2.333445e+003,4.891454e-003
2.335373e+003,4.797772e-003
2.337302e+003,4.850843e-003
2.339230e+003,4.930594e-003
2.341159e+003,4.875906e-003
2.343087e+003,4.721226e-003
2.345016e+003,4.607287e-003
2.346944e+003,4.509783e-003
2.348873e+003,4.513566e-003
2.350801e+003,4.407212e-003
2.352729e+003,4.326653e-003
2.354658e+003,4.231152e-003
2.356586e+003,4.257518e-003
2.358515e+003,4.118579e-003
2.360443e+003,4.128714e-003
2.362372e+003,4.031117e-003
2.364300e+003,4.065932e-003
2.366229e+003,3.968182e-003
2.368157e+003,3.959387e-003
2.370086e+003,3.935246e-003
2.372014e+003,3.891280e-003
2.373943e+003,3.882120e-003
2.375871e+003,3.727994e-003
2.377800e+003,3.730501e-003
2.379728e+003,3.667442e-003
2.381656e+003,3.391956e-003
2.383585e+003,3.334055e-003
2.385513e+003,3.377396e-003
2.387442e+003,3.265579e-003
2.389370e+003,2.975000e-003
2.391299e+003,3.012734e-003
2.393227e+003,3.152087e-003
2.395156e+003,3.191005e-003
2.397084e+003,3.081571e-003
2.399013e+003,2.888635e-003
2.400941e+003,2.750934e-003
2.402870e+003,2.738096e-003
2.404798e+003,2.766439e-003
2.406727e+003,2.797452e-003
2.408655e+003,2.647644e-003
2.410583e+003,2.646778e-003
2.412512e+003,2.761204e-003
2.414440e+003,2.704187e-003
2.416369e+003,2.599509e-003
2.418297e+003,2.573310e-003
2.420226e+003,2.465165e-003
2.422154e+003,2.252451e-003
2.424083e+003,2.429277e-003
2.426011e+003,2.579376e-003
2.427940e+003,2.538447e-003
2.429868e+003,2.521217e-003
2.431797e+003,2.598442e-003
2.433725e+003,2.525849e-003
2.435654e+003,2.343920e-003
2.437582e+003,2.302647e-003
2.439510e+003,2.389095e-003
2.441439e+003,2.310908e-003
2.443367e+003,2.274867e-003
2.445296e+003,2.251419e-003
2.447224e+003,2.176753e-003
2.449153e+003,2.129968e-003
2.451081e+003,2.274867e-003
2.453010e+003,2.052393e-003
2.454938e+003,1.783053e-003
2.456867e+003,1.867568e-003
2.458795e+003,1.925307e-003
2.460724e+003,1.791503e-003
2.462652e+003,1.691901e-003
2.464581e+003,1.636887e-003
2.466509e+003,1.685249e-003
2.468438e+003,1.841679e-003
2.470366e+003,1.769911e-003
2.472294e+003,1.649227e-003
2.474223e+003,1.860846e-003
2.476151e+003,1.950335e-003
2.478080e+003,1.599905e-003
2.480008e+003,1.368668e-003
2.481937e+003,1.446288e-003
2.483865e+003,1.468695e-003
2.485794e+003,1.405964e-003
2.487722e+003,1.455230e-003
2.489651e+003,1.419925e-003
2.491579e+003,1.343441e-003
2.493508e+003,1.314127e-003
2.495436e+003,1.415072e-003
2.497365e+003,1.676800e-003
2.499293e+003,1.792269e-003
2.501221e+003,1.635723e-003
2.503150e+003,1.731919e-003
2.505078e+003,1.687145e-003
2.507007e+003,1.424214e-003
2.508935e+003,1.590028e-003
2.510864e+003,1.690937e-003
2.512792e+003,1.514478e-003
2.514721e+003,1.322536e-003
2.516649e+003,9.403009e-004
2.518578e+003,9.530190e-004
2.520506e+003,1.237097e-003
2.522435e+003,1.372092e-003
2.524363e+003,1.352249e-003
2.526292e+003,1.056603e-003
2.528220e+003,1.079090e-003
2.530148e+003,1.101246e-003
2.532077e+003,9.528529e-004
2.534005e+003,1.003795e-003
2.535934e+003,1.031062e-003
2.537862e+003,1.117225e-003
2.539791e+003,1.091779e-003
2.541719e+003,9.203779e-004
2.543648e+003,7.639141e-004
2.545576e+003,7.356351e-004
2.547505e+003,7.342411e-004
2.549433e+003,9.800170e-004
2.551362e+003,9.466765e-004
2.553290e+003,8.364454e-004
2.555219e+003,7.726770e-004
2.557147e+003,6.259553e-004
2.559075e+003,5.551178e-004
2.561004e+003,5.471224e-004
2.562932e+003,8.713711e-004
2.564861e+003,1.191576e-003
2.566789e+003,1.106993e-003
2.568718e+003,8.118133e-004
2.570646e+003,6.139768e-004
2.572575e+003,7.253794e-004
2.574503e+003,1.147621e-003
2.576432e+003,1.289102e-003
2.578360e+003,7.946513e-004
2.580289e+003,6.540612e-004
2.582217e+003,7.100130e-004
2.584146e+003,7.424391e-004
2.586074e+003,5.582696e-004
2.588002e+003,5.072138e-004
2.589931e+003,4.287009e-004
2.591859e+003,5.707442e-004
2.593788e+003,7.743034e-004
2.595716e+003,9.077272e-004
2.597645e+003,9.141355e-004
2.599573e+003,8.490941e-004
2.601502e+003,8.273493e-004
2.603430e+003,8.371426e-004
2.605359e+003,9.099519e-004
2.607287e+003,1.043882e-003
2.609216e+003,1.147289e-003
2.611144e+003,1.131675e-003
2.613073e+003,9.554099e-004
2.615001e+003,8.561655e-004
2.616929e+003,8.100871e-004
2.618858e+003,8.056057e-004
2.620786e+003,1.093141e-003
2.622715e+003,9.789543e-004
2.624643e+003,7.217950e-004
2.626572e+003,6.274153e-004
2.628500e+003,6.476236e-004
2.630429e+003,8.960066e-004
2.632357e+003,8.265526e-004
2.634286e+003,6.010032e-004
2.636214e+003,5.252933e-004
2.638143e+003,4.830315e-004
2.640071e+003,7.783530e-004
2.642000e+003,9.884189e-004
2.643928e+003,8.405620e-004
2.645856e+003,7.005212e-004
2.647785e+003,7.068601e-004
2.649713e+003,9.755338e-004
2.651642e+003,1.041425e-003
2.653570e+003,8.573938e-004
2.655499e+003,8.206767e-004
2.657427e+003,9.618853e-004
2.659356e+003,1.104037e-003
2.661284e+003,8.561987e-004
2.663213e+003,5.786074e-004
2.665141e+003,1.080718e-003
2.667070e+003,1.502175e-003
2.668998e+003,1.286311e-003
2.670927e+003,8.327605e-004
2.672855e+003,5.243644e-004
2.674783e+003,5.315301e-004
2.676712e+003,7.318182e-004
2.678640e+003,1.025250e-003
2.680569e+003,1.004592e-003
2.682497e+003,1.157522e-003
2.684426e+003,1.151409e-003
2.686354e+003,8.521152e-004
2.688283e+003,9.128074e-004
2.690211e+003,1.244939e-003
2.692140e+003,1.222975e-003
2.694068e+003,1.089521e-003
2.695997e+003,1.331443e-003
2.697925e+003,1.439506e-003
2.699854e+003,1.283187e-003
2.701782e+003,1.094403e-003
2.703710e+003,1.268100e-003
2.705639e+003,1.719511e-003
2.707567e+003,1.646599e-003
2.709496e+003,1.188420e-003
2.711424e+003,1.136359e-003
2.713353e+003,1.676434e-003
2.715281e+003,2.040941e-003
2.717210e+003,1.733982e-003
2.719138e+003,1.546232e-003
2.721067e+003,1.573367e-003
2.722995e+003,1.600104e-003
2.724924e+003,1.572502e-003
2.726852e+003,1.768580e-003
2.728781e+003,1.660402e-003
2.730709e+003,1.721939e-003
2.732637e+003,2.087650e-003
2.734566e+003,2.019003e-003
2.736494e+003,1.840182e-003
2.738423e+003,2.125639e-003
2.740351e+003,2.287091e-003
2.742280e+003,2.488558e-003
2.744208e+003,2.342188e-003
2.746137e+003,2.076396e-003
2.748065e+003,2.293553e-003
2.749994e+003,2.651245e-003
2.751922e+003,2.563944e-003
2.753851e+003,2.682516e-003
2.755779e+003,2.905346e-003
2.757708e+003,2.986177e-003
2.759636e+003,3.121083e-003
2.761564e+003,3.288347e-003
2.763493e+003,3.268617e-003
2.765421e+003,3.325173e-003
2.767350e+003,3.426386e-003
2.769278e+003,3.609972e-003
2.771207e+003,3.634596e-003
2.773135e+003,3.632024e-003
2.775064e+003,3.448362e-003
2.776992e+003,3.478321e-003
2.778921e+003,3.590394e-003
2.780849e+003,3.954806e-003
2.782778e+003,4.297672e-003
2.784706e+003,4.212683e-003
2.786635e+003,4.254004e-003
2.788563e+003,4.589874e-003
2.790491e+003,4.585521e-003
2.792420e+003,4.504828e-003
2.794348e+003,4.544201e-003
2.796277e+003,4.841796e-003
2.798205e+003,5.225939e-003
2.800134e+003,5.071134e-003
2.802062e+003,5.078074e-003
2.803991e+003,5.308074e-003
2.805919e+003,5.529270e-003
2.807848e+003,5.696088e-003
2.809776e+003,5.565648e-003
2.811705e+003,5.712807e-003
2.813633e+003,6.031160e-003
2.815562e+003,6.413061e-003
2.817490e+003,6.643568e-003
2.819418e+003,6.692254e-003
2.821347e+003,6.894428e-003
2.823275e+003,6.973513e-003
2.825204e+003,7.216513e-003
2.827132e+003,7.394630e-003
2.829061e+003,7.317120e-003
2.830989e+003,7.467974e-003
2.832918e+003,7.872937e-003
2.834846e+003,8.334445e-003
2.836775e+003,8.601695e-003
2.838703e+003,8.668517e-003
2.840632e+003,8.853047e-003
2.842560e+003,8.829072e-003
2.844489e+003,8.947406e-003
2.846417e+003,9.336892e-003
2.848345e+003,9.417268e-003
2.850274e+003,9.464337e-003
2.852202e+003,9.634774e-003
2.854131e+003,9.698909e-003
2.856059e+003,9.543146e-003
2.857988e+003,9.507651e-003
2.859916e+003,9.754513e-003
2.861845e+003,1.026501e-002
2.863773e+003,1.077421e-002
2.865702e+003,1.092987e-002
2.867630e+003,1.100208e-002
2.869558e+003,1.116442e-002
2.871487e+003,1.109058e-002
2.873415e+003,1.148819e-002
2.875344e+003,1.191912e-002
2.877272e+003,1.240619e-002
2.879201e+003,1.286265e-002
2.881129e+003,1.281111e-002
2.883058e+003,1.295863e-002
2.884986e+003,1.323278e-002
2.886915e+003,1.379376e-002
2.888843e+003,1.418936e-002
2.890771e+003,1.422476e-002
2.892700e+003,1.438732e-002
2.894628e+003,1.468042e-002
2.896557e+003,1.483389e-002
2.898485e+003,1.494605e-002
2.900414e+003,1.549209e-002
2.902342e+003,1.611008e-002
2.904271e+003,1.613206e-002
2.906199e+003,1.628366e-002
2.908128e+003,1.686689e-002
2.910056e+003,1.749168e-002
2.911985e+003,1.803706e-002
2.913913e+003,1.805198e-002
2.915842e+003,1.815775e-002
2.917770e+003,1.864461e-002
2.919698e+003,1.877880e-002
2.921627e+003,1.904352e-002
2.923555e+003,1.940676e-002
2.925484e+003,1.956385e-002
2.927412e+003,2.008199e-002
2.929341e+003,2.054252e-002
2.931269e+003,2.060464e-002
2.933198e+003,2.134622e-002
2.935126e+003,2.230353e-002
2.937055e+003,2.292254e-002
2.938983e+003,2.344816e-002
2.940912e+003,2.380772e-002
2.942840e+003,2.429100e-002
2.944769e+003,2.459407e-002
2.946697e+003,2.525097e-002
2.948625e+003,2.609324e-002
2.950554e+003,2.660906e-002
2.952482e+003,2.655016e-002
2.954411e+003,2.662414e-002
2.956339e+003,2.716301e-002
2.958268e+003,2.777754e-002
2.960196e+003,2.831025e-002
2.962125e+003,2.849066e-002
2.964053e+003,2.892648e-002
2.965982e+003,2.960679e-002
2.967910e+003,3.050774e-002
2.969839e+003,3.109222e-002
2.971767e+003,3.127538e-002
2.973696e+003,3.179643e-002
2.975624e+003,3.208615e-002
2.977552e+003,3.241898e-002
2.979481e+003,3.282064e-002
2.981409e+003,3.311945e-002
2.983338e+003,3.360591e-002
2.985266e+003,3.417371e-002
2.987195e+003,3.525554e-002
2.989123e+003,3.604848e-002
2.991052e+003,3.622312e-002
2.992980e+003,3.646497e-002
2.994909e+003,3.725856e-002
2.996837e+003,3.785241e-002
2.998766e+003,3.843673e-002
3.000694e+003,3.901178e-002
3.002623e+003,3.949176e-002
3.004551e+003,3.986289e-002
3.006479e+003,4.103169e-002
3.008408e+003,4.239970e-002
3.010336e+003,4.321213e-002
3.012265e+003,4.382936e-002
3.014193e+003,4.423049e-002
3.016122e+003,4.488782e-002
3.018050e+003,4.596603e-002
3.019979e+003,4.673690e-002
3.021907e+003,4.712975e-002
3.023836e+003,4.790372e-002
3.025764e+003,4.878802e-002
3.027693e+003,4.946139e-002
3.029621e+003,5.045500e-002
3.031550e+003,5.169905e-002
3.033478e+003,5.248465e-002
3.035406e+003,5.335856e-002
3.037335e+003,5.432287e-002
3.039263e+003,5.522844e-002
3.041192e+003,5.648041e-002
3.043120e+003,5.784274e-002
3.045049e+003,5.883372e-002
3.046977e+003,5.991810e-002
3.048906e+003,6.133316e-002
3.050834e+003,6.196418e-002
3.052763e+003,6.264009e-002
3.054691e+003,6.369941e-002
3.056620e+003,6.490009e-002
3.058548e+003,6.628217e-002
3.060477e+003,6.777083e-002
3.062405e+003,6.926142e-002
3.064333e+003,7.015689e-002
3.066262e+003,7.137959e-002
3.068190e+003,7.265816e-002
3.070119e+003,7.372248e-002
3.072047e+003,7.476829e-002
3.073976e+003,7.622721e-002
3.075904e+003,7.796109e-002
3.077833e+003,7.951842e-002
3.079761e+003,8.088263e-002
3.081690e+003,8.205933e-002
3.083618e+003,8.336295e-002
3.085547e+003,8.473798e-002
3.087475e+003,8.637926e-002
3.089404e+003,8.804161e-002
3.091332e+003,8.965589e-002
3.093260e+003,9.144267e-002
3.095189e+003,9.248009e-002
3.097117e+003,9.356927e-002
3.099046e+003,9.523740e-002
3.100974e+003,9.739972e-002
3.102903e+003,9.945915e-002
3.104831e+003,1.006930e-001
3.106760e+003,1.020605e-001
3.108688e+003,1.036781e-001
3.110617e+003,1.052318e-001
3.112545e+003,1.074173e-001
3.114474e+003,1.092931e-001
3.116402e+003,1.105596e-001
3.118331e+003,1.123397e-001
3.120259e+003,1.147434e-001
3.122188e+003,1.165809e-001
3.124116e+003,1.179868e-001
3.126044e+003,1.196221e-001
3.127973e+003,1.217616e-001
3.129901e+003,1.237873e-001
3.131830e+003,1.256308e-001
3.133758e+003,1.274607e-001
3.135687e+003,1.292612e-001
3.137615e+003,1.318188e-001
3.139544e+003,1.337977e-001
3.141472e+003,1.351568e-001
3.143401e+003,1.371613e-001
3.145329e+003,1.387639e-001
3.147258e+003,1.407999e-001
3.149186e+003,1.428384e-001
3.151115e+003,1.445639e-001
3.153043e+003,1.468282e-001
3.154971e+003,1.487181e-001
3.156900e+003,1.507237e-001
3.158828e+003,1.531557e-001
3.160757e+003,1.548952e-001
3.162685e+003,1.564958e-001
3.164614e+003,1.584450e-001
3.166542e+003,1.607623e-001
3.168471e+003,1.627246e-001
3.170399e+003,1.647441e-001
3.172328e+003,1.660828e-001
3.174256e+003,1.674492e-001
3.176185e+003,1.693562e-001
3.178113e+003,1.711397e-001
3.180042e+003,1.732327e-001
3.181970e+003,1.755538e-001
3.183898e+003,1.770704e-001
3.185827e+003,1.786689e-001
3.187755e+003,1.804015e-001
3.189684e+003,1.820392e-001
3.191612e+003,1.835272e-001
3.193541e+003,1.853189e-001
3.195469e+003,1.870767e-001
3.197398e+003,1.885208e-001
3.199326e+003,1.902491e-001
3.201255e+003,1.920875e-001
3.203183e+003,1.942507e-001
3.205112e+003,1.963355e-001
3.207040e+003,1.970614e-001
3.208969e+003,1.975472e-001
3.210897e+003,1.991259e-001
3.212825e+003,2.005567e-001
3.214754e+003,2.014489e-001
3.216682e+003,2.027880e-001
3.218611e+003,2.045398e-001
3.220539e+003,2.052185e-001
3.222468e+003,2.068289e-001
3.224396e+003,2.082077e-001
3.226325e+003,2.086751e-001
3.228253e+003,2.092732e-001
3.230182e+003,2.102562e-001
3.232110e+003,2.113774e-001
3.234039e+003,2.119246e-001
3.235967e+003,2.122226e-001
3.237896e+003,2.131503e-001
3.239824e+003,2.139290e-001
3.241752e+003,2.142821e-001
3.243681e+003,2.147660e-001
3.245609e+003,2.158527e-001
3.247538e+003,2.159944e-001
3.249466e+003,2.158978e-001
3.251395e+003,2.166404e-001
3.253323e+003,2.170008e-001
3.255252e+003,2.173060e-001
3.257180e+003,2.180253e-001
3.259109e+003,2.187620e-001
3.261037e+003,2.188642e-001
3.262966e+003,2.187585e-001
3.264894e+003,2.184282e-001
3.266823e+003,2.186079e-001
3.268751e+003,2.193256e-001
3.270679e+003,2.201205e-001
3.272608e+003,2.201542e-001
3.274536e+003,2.198975e-001
3.276465e+003,2.198115e-001
3.278393e+003,2.197848e-001
3.280322e+003,2.204523e-001
3.282250e+003,2.209352e-001
3.284179e+003,2.211495e-001
3.286107e+003,2.213180e-001
3.288036e+003,2.219048e-001
3.289964e+003,2.226845e-001
3.291893e+003,2.226288e-001
3.293821e+003,2.219614e-001
3.295750e+003,2.220498e-001
3.297678e+003,2.217547e-001
3.299606e+003,2.209449e-001
3.301535e+003,2.218909e-001
3.303463e+003,2.221847e-001
3.305392e+003,2.215781e-001
3.307320e+003,2.224024e-001
3.309249e+003,2.232913e-001
3.311177e+003,2.231251e-001
3.313106e+003,2.238299e-001
3.315034e+003,2.237519e-001
3.316963e+003,2.235729e-001
3.318891e+003,2.236272e-001
3.320820e+003,2.237666e-001
3.322748e+003,2.236110e-001
3.324677e+003,2.236630e-001
3.326605e+003,2.236751e-001
3.328533e+003,2.239303e-001
3.330462e+003,2.236940e-001
3.332390e+003,2.249013e-001
3.334319e+003,2.251628e-001
3.336247e+003,2.247324e-001
3.338176e+003,2.242736e-001
3.340104e+003,2.235106e-001
3.342033e+003,2.228371e-001
3.343961e+003,2.233926e-001
3.345890e+003,2.232027e-001
3.347818e+003,2.233062e-001
3.349747e+003,2.241836e-001
3.351675e+003,2.245080e-001
3.353604e+003,2.235909e-001
3.355532e+003,2.222358e-001
3.357460e+003,2.232354e-001
3.359389e+003,2.230816e-001
3.361317e+003,2.219818e-001
3.363246e+003,2.217763e-001
3.365174e+003,2.212849e-001
3.367103e+003,2.207472e-001
3.369031e+003,2.205631e-001
3.370960e+003,2.207501e-001
3.372888e+003,2.200547e-001
3.374817e+003,2.196332e-001
3.376745e+003,2.199079e-001
3.378674e+003,2.191613e-001
3.380602e+003,2.187716e-001
3.382531e+003,2.177803e-001
3.384459e+003,2.160871e-001
3.386387e+003,2.152653e-001
3.388316e+003,2.150010e-001
3.390244e+003,2.138443e-001
3.392173e+003,2.123060e-001
3.394101e+003,2.113887e-001
3.396030e+003,2.102068e-001
3.397958e+003,2.095625e-001
3.399887e+003,2.081359e-001
3.401815e+003,2.066068e-001
3.403744e+003,2.059270e-001
3.405672e+003,2.047915e-001
3.407601e+003,2.040856e-001
3.409529e+003,2.026103e-001
3.411458e+003,2.006783e-001
3.413386e+003,2.003370e-001
3.415314e+003,1.986773e-001
3.417243e+003,1.971777e-001
3.419171e+003,1.966246e-001
3.421100e+003,1.946152e-001
3.423028e+003,1.925545e-001
3.424957e+003,1.918237e-001
3.426885e+003,1.912000e-001
3.428814e+003,1.893367e-001
3.430742e+003,1.868328e-001
3.432671e+003,1.847486e-001
3.434599e+003,1.832329e-001
3.436528e+003,1.818486e-001
3.438456e+003,1.805899e-001
3.440385e+003,1.792067e-001
3.442313e+003,1.777736e-001
3.444241e+003,1.761869e-001
3.446170e+003,1.748118e-001
3.448098e+003,1.735959e-001
3.450027e+003,1.713944e-001
3.451955e+003,1.700542e-001
3.453884e+003,1.694248e-001
3.455812e+003,1.677956e-001
3.457741e+003,1.664943e-001
3.459669e+003,1.645575e-001
3.461598e+003,1.626449e-001
3.463526e+003,1.615161e-001
3.465455e+003,1.613113e-001
3.467383e+003,1.589503e-001
3.469312e+003,1.562350e-001
3.471240e+003,1.552691e-001
3.473168e+003,1.543802e-001
3.475097e+003,1.527362e-001
3.477025e+003,1.505044e-001
3.478954e+003,1.484700e-001
3.480882e+003,1.474661e-001
3.482811e+003,1.467363e-001
3.484739e+003,1.450425e-001
3.486668e+003,1.427341e-001
3.488596e+003,1.409881e-001
3.490525e+003,1.401581e-001
3.492453e+003,1.391884e-001
3.494382e+003,1.380815e-001
3.496310e+003,1.364267e-001
3.498239e+003,1.342678e-001
3.500167e+003,1.330698e-001
3.502095e+003,1.309867e-001
3.504024e+003,1.282889e-001
3.505952e+003,1.265326e-001
3.507881e+003,1.259805e-001
3.509809e+003,1.258933e-001
3.511738e+003,1.246462e-001
3.513666e+003,1.222131e-001
3.515595e+003,1.204655e-001
3.517523e+003,1.202425e-001
3.519452e+003,1.190326e-001
3.521380e+003,1.161266e-001
3.523309e+003,1.137313e-001
3.525237e+003,1.122587e-001
3.527166e+003,1.110248e-001
3.529094e+003,1.098713e-001
3.531022e+003,1.083562e-001
3.532951e+003,1.073387e-001
3.534879e+003,1.064083e-001
3.536808e+003,1.049967e-001
3.538736e+003,1.026131e-001
3.540665e+003,9.992017e-002
3.542593e+003,9.834775e-002
3.544522e+003,9.697951e-002
3.546450e+003,9.567215e-002
3.548379e+003,9.473253e-002
3.550307e+003,9.367651e-002
3.552236e+003,9.239052e-002
3.554164e+003,9.065598e-002
3.556093e+003,8.889293e-002
3.558021e+003,8.744419e-002
3.559949e+003,8.629756e-002
3.561878e+003,8.507576e-002
3.563806e+003,8.347176e-002
3.565735e+003,8.214416e-002
3.567663e+003,8.089700e-002
3.569592e+003,7.960787e-002
3.571520e+003,7.869042e-002
3.573449e+003,7.767401e-002
3.575377e+003,7.630051e-002
3.577306e+003,7.487146e-002
3.579234e+003,7.362461e-002
3.581163e+003,7.202203e-002
3.583091e+003,7.069390e-002
3.585020e+003,6.910685e-002
3.586948e+003,6.759484e-002
3.588876e+003,6.656912e-002
3.590805e+003,6.563248e-002
3.592733e+003,6.432373e-002
3.594662e+003,6.326963e-002
3.596590e+003,6.184859e-002
3.598519e+003,6.126216e-002
3.600447e+003,6.033319e-002
3.602376e+003,5.887918e-002
3.604304e+003,5.795086e-002
3.606233e+003,5.654714e-002
3.608161e+003,5.552614e-002
3.610090e+003,5.367961e-002
3.612018e+003,5.265608e-002
3.613947e+003,5.161799e-002
3.615875e+003,5.060352e-002
3.617803e+003,4.984241e-002
3.619732e+003,4.888071e-002
3.621660e+003,4.740845e-002
3.623589e+003,4.590898e-002
3.625517e+003,4.484182e-002
3.627446e+003,4.366786e-002
3.629374e+003,4.235915e-002
3.631303e+003,4.105110e-002
3.633231e+003,4.014896e-002
3.635160e+003,3.972610e-002
3.637088e+003,3.845490e-002
3.639017e+003,3.627535e-002
3.640945e+003,3.498564e-002
3.642874e+003,3.342308e-002
3.644802e+003,3.193403e-002
3.646730e+003,3.086818e-002
3.648659e+003,2.972223e-002
3.650587e+003,2.850686e-002
3.652516e+003,2.718700e-002
3.654444e+003,2.609736e-002
3.656373e+003,2.513633e-002
3.658301e+003,2.403406e-002
3.660230e+003,2.277132e-002
3.662158e+003,2.141033e-002
3.664087e+003,1.979829e-002
3.666015e+003,1.840308e-002
3.667944e+003,1.720098e-002
3.669872e+003,1.629068e-002
3.671801e+003,1.568675e-002
3.673729e+003,1.552766e-002
3.675657e+003,1.496721e-002
3.677586e+003,1.402640e-002
3.679514e+003,1.285586e-002
3.681443e+003,1.180073e-002
3.683371e+003,1.022881e-002
3.685300e+003,9.144947e-003
3.687228e+003,8.827990e-003
3.689157e+003,8.018180e-003
3.691085e+003,7.228607e-003
3.693014e+003,7.063456e-003
3.694942e+003,6.461621e-003
3.696871e+003,6.072520e-003
3.698799e+003,5.709449e-003
3.700728e+003,5.145395e-003
3.702656e+003,4.709235e-003
3.704584e+003,4.032989e-003
3.706513e+003,3.413930e-003
3.708441e+003,3.226287e-003
3.710370e+003,3.011099e-003
3.712298e+003,2.690817e-003
3.714227e+003,2.221944e-003
3.716155e+003,2.491324e-003
3.718084e+003,2.966627e-003
3.720012e+003,2.883699e-003
3.721941e+003,1.968508e-003
3.723869e+003,1.648428e-003
3.725798e+003,2.007486e-003
3.727726e+003,1.835390e-003
3.729655e+003,1.218024e-003
3.731583e+003,1.064176e-003
3.733511e+003,1.328651e-003
3.735440e+003,1.480198e-003
3.737368e+003,1.046706e-003
3.739297e+003,5.116921e-004
3.741225e+003,1.189012e-004
3.743154e+003,-1.069104e-004
3.745082e+003,2.561354e-004
3.747011e+003,4.281371e-004
3.748939e+003,1.236076e-004
3.750868e+003,-5.168815e-004
3.752796e+003,-9.030565e-004
3.754725e+003,-1.334277e-003
3.756653e+003,-1.452847e-003
3.758582e+003,-9.582057e-004
3.760510e+003,-8.590114e-004
3.762438e+003,-9.083799e-004
3.764367e+003,-1.361462e-003
3.766295e+003,-1.321956e-003
3.768224e+003,-8.907560e-004
3.770152e+003,-1.014604e-003
3.772081e+003,-1.145059e-003
3.774009e+003,-1.596574e-003
3.775938e+003,-2.133586e-003
3.777866e+003,-1.530313e-003
3.779795e+003,-1.083985e-003
3.781723e+003,-1.424149e-003
3.783652e+003,-1.668800e-003
3.785580e+003,-1.744610e-003
3.787509e+003,-1.713819e-003
3.789437e+003,-1.873856e-003
3.791365e+003,-2.601169e-003
3.793294e+003,-2.618164e-003
3.795222e+003,-2.155149e-003
3.797151e+003,-2.250883e-003
3.799079e+003,-2.313014e-003
3.801008e+003,-2.356912e-003
3.802936e+003,-2.190326e-003
3.804865e+003,-2.068297e-003
3.806793e+003,-2.184821e-003
3.808722e+003,-2.281274e-003
3.810650e+003,-2.658178e-003
3.812579e+003,-2.606966e-003
3.814507e+003,-2.701053e-003
3.816436e+003,-2.573469e-003
3.818364e+003,-2.170513e-003
3.820292e+003,-2.083004e-003
3.822221e+003,-1.993698e-003
3.824149e+003,-2.096161e-003
3.826078e+003,-2.535786e-003
3.828006e+003,-2.588423e-003
3.829935e+003,-2.587039e-003
3.831863e+003,-2.580847e-003
3.833792e+003,-2.755579e-003
3.835720e+003,-3.165822e-003
3.837649e+003,-3.334828e-003
3.839577e+003,-3.529339e-003
3.841506e+003,-3.756350e-003
3.843434e+003,-3.358995e-003
3.845363e+003,-3.151349e-003
3.847291e+003,-2.967068e-003
3.849219e+003,-2.973649e-003
3.851148e+003,-2.876626e-003
3.853076e+003,-2.831167e-003
3.855005e+003,-2.732861e-003
3.856933e+003,-2.533348e-003
3.858862e+003,-2.975459e-003
3.860790e+003,-3.132467e-003
3.862719e+003,-3.316053e-003
3.864647e+003,-3.779114e-003
3.866576e+003,-2.969108e-003
3.868504e+003,-2.841405e-003
3.870433e+003,-3.473168e-003
3.872361e+003,-3.909726e-003
3.874290e+003,-3.971685e-003
3.876218e+003,-3.209140e-003
3.878146e+003,-3.160098e-003
3.880075e+003,-3.809923e-003
3.882003e+003,-3.643500e-003
3.883932e+003,-3.599535e-003
3.885860e+003,-3.475764e-003
3.887789e+003,-3.169243e-003
3.889717e+003,-3.349657e-003
3.891646e+003,-3.519709e-003
3.893574e+003,-3.957009e-003
3.895503e+003,-3.505905e-003
3.897431e+003,-2.801309e-003
3.899360e+003,-2.679978e-003
3.901288e+003,-3.120361e-003
3.903217e+003,-3.519906e-003
3.905145e+003,-3.178880e-003
3.907073e+003,-2.893083e-003
3.909002e+003,-3.017908e-003
3.910930e+003,-3.221046e-003
3.912859e+003,-3.605975e-003
3.914787e+003,-3.372047e-003
3.916716e+003,-3.138914e-003
3.918644e+003,-3.781938e-003
3.920573e+003,-3.848809e-003
3.922501e+003,-3.582316e-003
3.924430e+003,-4.115107e-003
3.926358e+003,-4.220385e-003
3.928287e+003,-3.731844e-003
3.930215e+003,-3.959931e-003
3.932144e+003,-3.787194e-003
3.934072e+003,-2.710734e-003
3.936000e+003,-3.104340e-003
3.937929e+003,-4.033898e-003
3.939857e+003,-4.076802e-003
3.941786e+003,-3.933106e-003
3.943714e+003,-3.591911e-003
3.945643e+003,-3.112038e-003
3.947571e+003,-3.053246e-003
3.949500e+003,-2.870405e-003
3.951428e+003,-2.663513e-003
3.953357e+003,-2.661471e-003
3.955285e+003,-2.919347e-003
3.957214e+003,-3.109538e-003
3.959142e+003,-3.665711e-003
3.961071e+003,-3.585667e-003
3.962999e+003,-3.210851e-003
3.964927e+003,-3.350775e-003
3.966856e+003,-4.113761e-003
3.968784e+003,-4.034128e-003
3.970713e+003,-3.305958e-003
3.972641e+003,-3.371357e-003
3.974570e+003,-4.012264e-003
3.976498e+003,-4.297655e-003
3.978427e+003,-4.838089e-003
3.980355e+003,-5.073619e-003
3.982284e+003,-4.576792e-003
3.984212e+003,-3.946568e-003
3.986141e+003,-3.874720e-003
3.988069e+003,-3.694754e-003
3.989998e+003,-3.278237e-003
3.991926e+003,-3.307964e-003
3.993854e+003,-3.490457e-003
3.995783e+003,-3.729577e-003
3.997711e+003,-4.337022e-003
3.999640e+003,-4.316978e-003
4.001568e+003,0.000000e+000
